# Matter power spectrum P(k) at redshift z=99
# for k=1.00899e-05 to 203.102 h/Mpc,
# number of wavenumbers equal to 845
#    1:k (h/Mpc)              2:P (Mpc/h)^3        
       1.008985923246e-05       8.603080173196e-03 
       2.251775554681e-05       1.859291589776e-02 
       3.498636120247e-05       2.838341192434e-02 
       4.752690064658e-05       3.808739737428e-02 
       6.017107953230e-05       4.776706309438e-02 
       7.295134796122e-05       5.746776671918e-02 
       8.590117158737e-05       6.722746282073e-02 
       9.905531395762e-05       7.708052497357e-02 
       1.124501334903e-04       8.705967757608e-02 
       1.261238985241e-04       9.719713506170e-02 
       1.401171238832e-04       1.075253759569e-01 
       1.544729323814e-04       1.180777234353e-01 
       1.692374445844e-04       1.288888307733e-01 
       1.844601999316e-04       1.399951106931e-01 
       2.001946119095e-04       1.514351428031e-01 
       2.164984592990e-04       1.632500705854e-01 
       2.334344144703e-04       1.754840002809e-01 
       2.510706081373e-04       1.881844064584e-01 
       2.694812277303e-04       2.014025369547e-01 
       2.887471433953e-04       2.151938344414e-01 
       3.089565513139e-04       2.296183455119e-01 
       3.302056182976e-04       2.447411152216e-01 
       3.525991041420e-04       2.606325622762e-01 
       3.762509287930e-04       2.773687853180e-01 
       4.012846398372e-04       2.950317960412e-01 
       4.278337222871e-04       3.137096211082e-01 
       4.560416775835e-04       3.334962225258e-01 
       4.860617833145e-04       3.544911896269e-01 
       5.180564313506e-04       3.767991117312e-01 
       5.521959330390e-04       4.005285793722e-01 
       5.886566801031e-04       4.257907315695e-01 
       6.276185643138e-04       4.526972828585e-01 
       6.692615934693e-04       4.813580153022e-01 
       7.137617003222e-04       5.118777386460e-01 
       7.612858261435e-04       5.443527783565e-01 
       8.119864671933e-04       5.788671509874e-01 
       8.659959882004e-04       6.154886643288e-01 
       9.234211115549e-04       6.542651932856e-01 
       9.843380583383e-04       6.952215123003e-01 
       1.048788822492e-03       7.383569738960e-01 
       1.116778986862e-03       7.836443239215e-01 
       1.188277341593e-03       8.310298183150e-01 
       1.263217364035e-03       8.804344324908e-01 
       1.341500403710e-03       9.317501311121e-01 
       1.423000229794e-03       9.848626516155e-01 
       1.507568477172e-03       1.039636576533e+00 
       1.595040487038e-03       1.095925807599e+00 
       1.685241074673e-03       1.153577732687e+00 
       1.777989849548e-03       1.212437017897e+00 
       1.873105833077e-03       1.272348884343e+00 
       1.970411240942e-03       1.333161829100e+00 
       2.069734400901e-03       1.394729546006e+00 
       2.170911853969e-03       1.456912524005e+00 
       2.273789735124e-03       1.519578889109e+00 
       2.378224553043e-03       1.582604997356e+00 
       2.484083492891e-03       1.645875701673e+00 
       2.591244358339e-03       1.709284055849e+00 
       2.699595254278e-03       1.772731528604e+00 
       2.809034094327e-03       1.836127183325e+00 
       2.919467999818e-03       1.899387679629e+00 
       3.030812641171e-03       1.962436536017e+00 
       3.142991559080e-03       2.025203872488e+00 
       3.255935491967e-03       2.087625783628e+00 
       3.369581727509e-03       2.149644046058e+00 
       3.483873489548e-03       2.211205512663e+00 
       3.598759366763e-03       2.272262391355e+00 
       3.714192786088e-03       2.332770350484e+00 
       3.830131531369e-03       2.392690119744e+00 
       3.946537306183e-03       2.451985494170e+00 
       4.063375338686e-03       2.510624720487e+00 
       4.180614025754e-03       2.568577990944e+00 
       4.298224613405e-03       2.625820050886e+00 
       4.416180910359e-03       2.682327594171e+00 
       4.534459031676e-03       2.738079339749e+00 
       4.653037169509e-03       2.793058492411e+00 
       4.771895388214e-03       2.847248007278e+00 
       4.891015441268e-03       2.900635101907e+00 
       5.010380607654e-03       2.953207766425e+00 
       5.129975545600e-03       3.004955500654e+00 
       5.249786161774e-03       3.055871183360e+00 
       5.369799494223e-03       3.105947449663e+00 
       5.490003607537e-03       3.155180464951e+00 
       5.610387498875e-03       3.203565969011e+00 
       5.730941013670e-03       3.251101404894e+00 
       5.851654769906e-03       3.297785852305e+00 
       5.972520090068e-03       3.343619997542e+00 
       6.093528939880e-03       3.388604217585e+00 
       6.214673873133e-03       3.432740477103e+00 
       6.335947981903e-03       3.476032215628e+00 
       6.457344851613e-03       3.518482156260e+00 
       6.578858520406e-03       3.560096192539e+00 
       6.700483442374e-03       3.600878816528e+00 
       6.822214454238e-03       3.640835061345e+00 
       6.944046745134e-03       3.679970931457e+00 
       7.065975829162e-03       3.718295029058e+00 
       7.187997520434e-03       3.755811574306e+00 
       7.310107910369e-03       3.792531494403e+00 
       7.432303346994e-03       3.828461703927e+00 
       7.554580416073e-03       3.863609948999e+00 
       7.676935923868e-03       3.897982984059e+00 
       7.799366881390e-03       3.931591753286e+00 
       7.921870489981e-03       3.964444433582e+00 
       8.044444128110e-03       3.996550116279e+00 
       8.167085339271e-03       4.027916322623e+00 
       8.289791820870e-03       4.058555924875e+00 
       8.412561414027e-03       4.088475207823e+00 
       8.535392094189e-03       4.117683067906e+00 
       8.658281962499e-03       4.146189641580e+00 
       8.781229237845e-03       4.174004244080e+00 
       8.904232249532e-03       4.201135962439e+00 
       9.027289430517e-03       4.227593837665e+00 
       9.150399311170e-03       4.253386312910e+00 
       9.273560513504e-03       4.278523011765e+00 
       9.396771745844e-03       4.303012539089e+00 
       9.520031797891e-03       4.326863176150e+00 
       9.643339536152e-03       4.350084687789e+00 
       9.766693899711e-03       4.372683245841e+00 
       9.890093896300e-03       4.394670611337e+00 
       1.001353859866e-02       4.416051984789e+00 
       1.013702714118e-02       4.436835997616e+00 
       1.026055871672e-02       4.457031080661e+00 
       1.038413257374e-02       4.476644993650e+00 
       1.050774801356e-02       4.495687264037e+00 
       1.063140438788e-02       4.514159718289e+00 
       1.075510109639e-02       4.532077385775e+00 
       1.087883758462e-02       4.549441149373e+00 
       1.100261334193e-02       4.566260591330e+00 
       1.112642789957e-02       4.582542787729e+00 
       1.125028082899e-02       4.598294380928e+00 
       1.137417174014e-02       4.613521444501e+00 
       1.149810028000e-02       4.628232247865e+00 
       1.162206613114e-02       4.642430023668e+00 
       1.174606901039e-02       4.656124275516e+00 
       1.187010866765e-02       4.669320260015e+00 
       1.199418488471e-02       4.682023563756e+00 
       1.211829747421e-02       4.694240589113e+00 
       1.224244627863e-02       4.705978177642e+00 
       1.236663116941e-02       4.717241820665e+00 
       1.249085204607e-02       4.728034836057e+00 
       1.261510883545e-02       4.738366746013e+00 
       1.273940149094e-02       4.748239637905e+00 
       1.286372999182e-02       4.757663497382e+00 
       1.298809434267e-02       4.766640230944e+00 
       1.311249457272e-02       4.775175451633e+00 
       1.323693073542e-02       4.783275339978e+00 
       1.336140290784e-02       4.790946075253e+00 
       1.348591119034e-02       4.798193345877e+00 
       1.361045570605e-02       4.805020774049e+00 
       1.373503660061e-02       4.811434248871e+00 
       1.385965404174e-02       4.817440047874e+00 
       1.398430821901e-02       4.823040843731e+00 
       1.410899934352e-02       4.828244567562e+00 
       1.423372764771e-02       4.833052885759e+00 
       1.435849338511e-02       4.837475555464e+00 
       1.448329683018e-02       4.841513121684e+00 
       1.460813827812e-02       4.845173224461e+00 
       1.473301804481e-02       4.848460048067e+00 
       1.485793646664e-02       4.851378644510e+00 
       1.498289390044e-02       4.853931545218e+00 
       1.510789072347e-02       4.856129465329e+00 
       1.523292733332e-02       4.857971648217e+00 
       1.535800414793e-02       4.859464225598e+00 
       1.548312160558e-02       4.860615690611e+00 
       1.560828016494e-02       4.861428177421e+00 
       1.573348030509e-02       4.861901657885e+00 
       1.585872252561e-02       4.862046385970e+00 
       1.598400734663e-02       4.861866895963e+00 
       1.610933530897e-02       4.861366770600e+00 
       1.623470697422e-02       4.860550258997e+00 
       1.636012292492e-02       4.859424194865e+00 
       1.648558376469e-02       4.857986997954e+00 
       1.661109011841e-02       4.856252239675e+00 
       1.673664263240e-02       4.854216456132e+00 
       1.686224197463e-02       4.851889480405e+00 
       1.698788883495e-02       4.849273692226e+00 
       1.711358392534e-02       4.846369528012e+00 
       1.723932798012e-02       4.843188191124e+00 
       1.736512175629e-02       4.839728875777e+00 
       1.749096603375e-02       4.835997959768e+00 
       1.761686161566e-02       4.831996844864e+00 
       1.774280932873e-02       4.827740379233e+00 
       1.786881002356e-02       4.823215765987e+00 
       1.799486457501e-02       4.818441677541e+00 
       1.812097388257e-02       4.813412246547e+00 
       1.824713887072e-02       4.808138491012e+00 
       1.837336048938e-02       4.802620977689e+00 
       1.849963971429e-02       4.796865528633e+00 
       1.862597754748e-02       4.790870281637e+00 
       1.875237501771e-02       4.784646155648e+00 
       1.887883318094e-02       4.778193333857e+00 
       1.900535312085e-02       4.771520523419e+00 
       1.913193594933e-02       4.764623897345e+00 
       1.925858280700e-02       4.757513353852e+00 
       1.938529486380e-02       4.750186118604e+00 
       1.951207331950e-02       4.742653230128e+00 
       1.963891940434e-02       4.734912190789e+00 
       1.976583437961e-02       4.726977783519e+00 
       1.989281953829e-02       4.718833931513e+00 
       2.001987620571e-02       4.710499711744e+00 
       2.014700574018e-02       4.701978012692e+00 
       2.027420953374e-02       4.693264009475e+00 
       2.040148901283e-02       4.684367271534e+00 
       2.052884563906e-02       4.675288990121e+00 
       2.065628090997e-02       4.666035217270e+00 
       2.078379635978e-02       4.656608675022e+00 
       2.091139356027e-02       4.647010076009e+00 
       2.103907412157e-02       4.637236693485e+00 
       2.116683969302e-02       4.627305051739e+00 
       2.129469196411e-02       4.617211945826e+00 
       2.142263266535e-02       4.606955458062e+00 
       2.155066356926e-02       4.596555964938e+00 
       2.167878649131e-02       4.586006546061e+00 
       2.180700329099e-02       4.575293641003e+00 
       2.193531587278e-02       4.564444844168e+00 
       2.206372618728e-02       4.553452518256e+00 
       2.219223623229e-02       4.542322994652e+00 
       2.232084805397e-02       4.531049916499e+00 
       2.244956374803e-02       4.519650508073e+00 
       2.257838546090e-02       4.508114368071e+00 
       2.270731539105e-02       4.496458740593e+00 
       2.283635579024e-02       4.484674273238e+00 
       2.296550896486e-02       4.472767694740e+00 
       2.309477727734e-02       4.460743713875e+00 
       2.322416314755e-02       4.448603834782e+00 
       2.335366905427e-02       4.436350672606e+00 
       2.348329753672e-02       4.423986558411e+00 
       2.361305119611e-02       4.411510955639e+00 
       2.374293269725e-02       4.398932166200e+00 
       2.387294477028e-02       4.386257137887e+00 
       2.400309021230e-02       4.373473201787e+00 
       2.413337188923e-02       4.360602120724e+00 
       2.426379273761e-02       4.347633817103e+00 
       2.439435576651e-02       4.334563527028e+00 
       2.452506405949e-02       4.321413464219e+00 
       2.465592077667e-02       4.308170854337e+00 
       2.478692915676e-02       4.294853520729e+00 
       2.491809251927e-02       4.281444691186e+00 
       2.504941426679e-02       4.267954765017e+00 
       2.518089788722e-02       4.254389435163e+00 
       2.531254695627e-02       4.240751368629e+00 
       2.544436513988e-02       4.227043318992e+00 
       2.557635619681e-02       4.213250497099e+00 
       2.570852398133e-02       4.199407248259e+00 
       2.584087244594e-02       4.185495258678e+00 
       2.597340564424e-02       4.171506365635e+00 
       2.610612773389e-02       4.157466557347e+00 
       2.623904297966e-02       4.143364799527e+00 
       2.637215575665e-02       4.129201949298e+00 
       2.650547055353e-02       4.114992071850e+00 
       2.663899197597e-02       4.100714270131e+00 
       2.677272475021e-02       4.086399144828e+00 
       2.690667372668e-02       4.072030910837e+00 
       2.704084388387e-02       4.057607423021e+00 
       2.717524033223e-02       4.043143498116e+00 
       2.730986831833e-02       4.028645109573e+00 
       2.744473322907e-02       4.014097198720e+00 
       2.757984059617e-02       3.999501754139e+00 
       2.771519610072e-02       3.984872304433e+00 
       2.785080557800e-02       3.970214158605e+00 
       2.798667502244e-02       3.955505957685e+00 
       2.812281059279e-02       3.940778636956e+00 
       2.825921861753e-02       3.926009653056e+00 
       2.839590560043e-02       3.911224482729e+00 
       2.853287822642e-02       3.896400623882e+00 
       2.867014336763e-02       3.881553399724e+00 
       2.880770808975e-02       3.866672568090e+00 
       2.894557965859e-02       3.851771894156e+00 
       2.908376554696e-02       3.836860948601e+00 
       2.922227344183e-02       3.821919084851e+00 
       2.936111125182e-02       3.806958774110e+00 
       2.950028711498e-02       3.791983824653e+00 
       2.963980940692e-02       3.776984721565e+00 
       2.977968674934e-02       3.761970559130e+00 
       2.991992801888e-02       3.746947887699e+00 
       3.006054235642e-02       3.731912557457e+00 
       3.020153917674e-02       3.716862404973e+00 
       3.034292817872e-02       3.701806283679e+00 
       3.048471935591e-02       3.686732951552e+00 
       3.062692300766e-02       3.671657460105e+00 
       3.076954975073e-02       3.656583339082e+00 
       3.091261053153e-02       3.641497087471e+00 
       3.105611663883e-02       3.626399494221e+00 
       3.120007971717e-02       3.611309481709e+00 
       3.134451178094e-02       3.596197072273e+00 
       3.148942522908e-02       3.581100206347e+00 
       3.163483286058e-02       3.566001598514e+00 
       3.178074789075e-02       3.550906347634e+00 
       3.192718396829e-02       3.535797386169e+00 
       3.207415519325e-02       3.520701859355e+00 
       3.222167613596e-02       3.505603638642e+00 
       3.236976185693e-02       3.490510789475e+00 
       3.251842792776e-02       3.475439341976e+00 
       3.266769045326e-02       3.460332853043e+00 
       3.281756609471e-02       3.445279028928e+00 
       3.296807209441e-02       3.430201461019e+00 
       3.311922630162e-02       3.415126596109e+00 
       3.327104719986e-02       3.400089882636e+00 
       3.342355393590e-02       3.385029489626e+00 
       3.357676635028e-02       3.369990488837e+00 
       3.373070500968e-02       3.354960369527e+00 
       3.388539124115e-02       3.339940831474e+00 
       3.404084716838e-02       3.324928549104e+00 
       3.419709575014e-02       3.309920931776e+00 
       3.435416082110e-02       3.294943333767e+00 
       3.451206713503e-02       3.279968897669e+00 
       3.467084041087e-02       3.264997576686e+00 
       3.483050738153e-02       3.250026568135e+00 
       3.499109584590e-02       3.235091307410e+00 
       3.515263472420e-02       3.220155286499e+00 
       3.531515411689e-02       3.205233936958e+00 
       3.547868536756e-02       3.190324804836e+00 
       3.564326112997e-02       3.175430324870e+00 
       3.580891543966e-02       3.160541781158e+00 
       3.597568379052e-02       3.145669323400e+00 
       3.614360321665e-02       3.130812542148e+00 
       3.631271238005e-02       3.115955669350e+00 
       3.648305166451e-02       3.101111274945e+00 
       3.665466327647e-02       3.086292858642e+00 
       3.682759135313e-02       3.071482830703e+00 
       3.700188207881e-02       3.056678302714e+00 
       3.717758380999e-02       3.041887635895e+00 
       3.735474721006e-02       3.027104308893e+00 
       3.753342539455e-02       3.012317474176e+00 
       3.771367408789e-02       2.997553204253e+00 
       3.789555179276e-02       2.982804381725e+00 
       3.807911997330e-02       2.968053835657e+00 
       3.826444325354e-02       2.953313046292e+00 
       3.845158963247e-02       2.938580969455e+00 
       3.864063071773e-02       2.923854323617e+00 
       3.883164197941e-02       2.909126336095e+00 
       3.902470302655e-02       2.894406552670e+00 
       3.921989790844e-02       2.879688660071e+00 
       3.941731544346e-02       2.864970060113e+00 
       3.961704957874e-02       2.850251418823e+00 
       3.981919978381e-02       2.835536669107e+00 
       4.002387148228e-02       2.820819163193e+00 
       4.023117652610e-02       2.806095473351e+00 
       4.044123371716e-02       2.791370997926e+00 
       4.065416938230e-02       2.776632215473e+00 
       4.087011800810e-02       2.761886623865e+00 
       4.108922294299e-02       2.747137127315e+00 
       4.131163717545e-02       2.732363790558e+00 
       4.153752419801e-02       2.717582257799e+00 
       4.176705896879e-02       2.702788229440e+00 
       4.200042898355e-02       2.687966269936e+00 
       4.223783547389e-02       2.673129828149e+00 
       4.247949474925e-02       2.658264735956e+00 
       4.272563970381e-02       2.643366509842e+00 
       4.297652151252e-02       2.628446725235e+00 
       4.323241154501e-02       2.613478451424e+00 
       4.349360353122e-02       2.598485051111e+00 
       4.376041601845e-02       2.583442612916e+00 
       4.403319516735e-02       2.568352784657e+00 
       4.431231794305e-02       2.553212862326e+00 
       4.459819576870e-02       2.538014616494e+00 
       4.489127872208e-02       2.522753327042e+00 
       4.519206037240e-02       2.507418273400e+00 
       4.550108337449e-02       2.492040613824e+00 
       4.581894596305e-02       2.476537334718e+00 
       4.614630952020e-02       2.460956679288e+00 
       4.648390742907e-02       2.445265409133e+00 
       4.683255547441e-02       2.429481124561e+00 
       4.719316411280e-02       2.413570769957e+00 
       4.756675301229e-02       2.397533083206e+00 
       4.795446835950e-02       2.381363260545e+00 
       4.835760355679e-02       2.365043234289e+00 
       4.877762409092e-02       2.348528527904e+00 
       4.921619755703e-02       2.331814185565e+00 
       4.967523007970e-02       2.314862485274e+00 
       5.015691069999e-02       2.297668135059e+00 
       5.066376571099e-02       2.280194122465e+00 
       5.119872543759e-02       2.262385108235e+00 
       5.176520658204e-02       2.244227078864e+00 
       5.236721398511e-02       2.225636350951e+00 
       5.300946643626e-02       2.206551936656e+00 
       5.369755186298e-02       2.186884058797e+00 
       5.443811750858e-02       2.166527945641e+00 
       5.523909986108e-02       2.145335569911e+00 
       5.610999569786e-02       2.123124233858e+00 
       5.706216693470e-02       2.099641495551e+00 
       5.810915311482e-02       2.074559179432e+00 
