# dimensionless total [l(l+1)/2pi] C_l's
# for l=2 to 3000, i.e. number of multipoles equal to 2999
#
# -> if you prefer output in CAMB/HealPix/LensPix units/order, set 'format' to 'camb' in input file
# -> if you don't want to see such a header, set 'headers' to 'no' in input file
# -> for CMB lensing (phi), these are C_l^phi-phi for the lensing potential.
#    Remember the conversion factors:
#    C_l^dd (deflection) = l(l+1) C_l^phi-phi
#    C_l^gg (shear/convergence) = 1/4 (l(l+1))^2 C_l^phi-phi
#
# 1:l     2:TT                     3:EE                     4:TE                     5:BB                     6:phiphi                 7:TPhi                   8:Ephi               
    2       1.513653834824e-10       4.793903776099e-15       3.799484690382e-13       0.000000000000e+00       8.309212744783e-09       5.059433611263e-10      -2.012650107741e-12 
    3       1.417621194856e-10       6.054272053918e-15       4.281330772365e-13       0.000000000000e+00       5.129978591379e-09       3.573270600781e-10      -1.512239626782e-12 
    4       1.331031495158e-10       5.148484370655e-15       3.998295198797e-13       0.000000000000e+00       3.573529015132e-09       2.695933040570e-10      -9.768250125748e-13 
    5       1.266666738950e-10       3.372565859128e-15       3.392048335188e-13       0.000000000000e+00       2.668825124171e-09       2.123223181588e-10      -5.310568593323e-13 
    6       1.222169123036e-10       1.855371840333e-15       2.716328725334e-13       0.000000000000e+00       2.084745693199e-09       1.723412623643e-10      -2.072771836135e-13 
    7       1.192668855118e-10       9.974721865174e-16       2.117817999858e-13       0.000000000000e+00       1.680681398708e-09       1.430962658092e-10      -5.100597719831e-15 
    8       1.174577648254e-10       6.487517732509e-16       1.659783375526e-13       0.000000000000e+00       1.387234042227e-09       1.209800977981e-10       9.389941584428e-14 
    9       1.164909823699e-10       5.211242057025e-16       1.355003378195e-13       0.000000000000e+00       1.166734700840e-09       1.038419508023e-10       1.170686504341e-13 
   10       1.161189349523e-10       4.391069240345e-16       1.187421367193e-13       0.000000000000e+00       9.966551198952e-10       9.028165276484e-11       9.394895482021e-14 
   11       1.162450836373e-10       3.650702733768e-16       1.126671503058e-13       0.000000000000e+00       8.432620140522e-10       7.968689640618e-11       5.144572908341e-14 
   12       1.167235810925e-10       3.173461362554e-16       1.138505471662e-13       0.000000000000e+00       7.367301926709e-10       7.043719626479e-11       8.500386858417e-15 
   13       1.174848687104e-10       3.044888129456e-16       1.193237356324e-13       0.000000000000e+00       6.492774409556e-10       6.289451266309e-11      -2.257837010922e-14 
   14       1.184562351269e-10       3.152696550184e-16       1.269075328093e-13       0.000000000000e+00       5.765165282230e-10       5.630807137761e-11      -3.808383205775e-14 
   15       1.196354567257e-10       3.376693495036e-16       1.351855396734e-13       0.000000000000e+00       5.152712206411e-10       5.077141729898e-11      -3.912100817648e-14 
   16       1.209629718127e-10       3.710912763787e-16       1.435539824757e-13       0.000000000000e+00       4.631993694353e-10       4.602164378023e-11      -3.059266543098e-14 
   17       1.224284807877e-10       4.221647324282e-16       1.519140698748e-13       0.000000000000e+00       4.185316272970e-10       4.189359825761e-11      -1.835863837201e-14 
   18       1.239839264650e-10       4.958269284887e-16       1.605058465910e-13       0.000000000000e+00       3.797646167357e-10       3.827118106575e-11      -7.625160717868e-15 
   19       1.256408200611e-10       5.918319596379e-16       1.695697367884e-13       0.000000000000e+00       3.462799283262e-10       3.511472474043e-11      -8.583896096651e-16 
   20       1.273779345255e-10       7.076336938239e-16       1.792854046052e-13       0.000000000000e+00       3.167898996302e-10       3.233044321450e-11       6.149222880629e-16 
   21       1.292015057293e-10       8.426277483700e-16       1.896061710889e-13       0.000000000000e+00       2.908313203573e-10       2.986691139606e-11      -2.207181428879e-15 
   22       1.310931077746e-10       9.964651128626e-16       2.003100339761e-13       0.000000000000e+00       2.677823112777e-10       2.764757408539e-11      -7.115103560910e-15 
   23       1.330507572220e-10       1.168913052726e-15       2.109574168636e-13       0.000000000000e+00       2.473260061623e-10       2.564977996749e-11      -1.224050570270e-14 
   24       1.350573788756e-10       1.359694598529e-15       2.210051254908e-13       0.000000000000e+00       2.289898696735e-10       2.384589739087e-11      -1.575921239371e-14 
   25       1.371238453219e-10       1.569354389224e-15       2.301822597583e-13       0.000000000000e+00       2.125581718054e-10       2.222842380606e-11      -1.704022614240e-14 
   26       1.392507549385e-10       1.798902205202e-15       2.383132056091e-13       0.000000000000e+00       1.977333566164e-10       2.077770222403e-11      -1.603141616860e-14 
   27       1.414239259524e-10       2.050395108213e-15       2.453303349593e-13       0.000000000000e+00       1.843374686741e-10       1.946538820654e-11      -1.354518915965e-14 
   28       1.436165296178e-10       2.326205157990e-15       2.512281650650e-13       0.000000000000e+00       1.721394724794e-10       1.825347999575e-11      -1.073968371058e-14 
   29       1.458387314856e-10       2.627779254712e-15       2.560721718978e-13       0.000000000000e+00       1.610770030475e-10       1.714081095758e-11      -8.250700309804e-15 
   30       1.481015372553e-10       2.956261589435e-15       2.599856918938e-13       0.000000000000e+00       1.510312207182e-10       1.612917171318e-11      -6.644934211376e-15 
   31       1.504049371495e-10       3.312726065782e-15       2.630938689544e-13       0.000000000000e+00       1.417971599052e-10       1.521078026630e-11      -6.413182462852e-15 
   32       1.527513250398e-10       3.698091599526e-15       2.653410747777e-13       0.000000000000e+00       1.333270564156e-10       1.437522455839e-11      -7.274862127160e-15 
   33       1.551342591093e-10       4.113160545385e-15       2.666038799794e-13       0.000000000000e+00       1.255609308986e-10       1.360315499735e-11      -8.596400965949e-15 
   34       1.575404721460e-10       4.558688522859e-15       2.667410489314e-13       0.000000000000e+00       1.183900186876e-10       1.287159171238e-11      -9.698152795804e-15 
   35       1.599744090698e-10       5.035582783588e-15       2.656102867242e-13       0.000000000000e+00       1.117775567729e-10       1.218244228570e-11      -1.034698067596e-14 
   36       1.624405087846e-10       5.544765082666e-15       2.630546395384e-13       0.000000000000e+00       1.056704435663e-10       1.154313337748e-11      -1.042938724987e-14 
   37       1.649382182935e-10       6.087102523582e-15       2.589305154559e-13       0.000000000000e+00       9.998914016055e-11       1.095794210068e-11      -9.879643013570e-15 
   38       1.674700005094e-10       6.663361015562e-15       2.532240339380e-13       0.000000000000e+00       9.471892052056e-11       1.042498180377e-11      -8.879562997484e-15 
   39       1.700347421732e-10       7.274229498239e-15       2.459738110583e-13       0.000000000000e+00       8.984301913721e-11       9.937664212439e-12      -7.729576698015e-15 
   40       1.726247721414e-10       7.920326666452e-15       2.372416107364e-13       0.000000000000e+00       8.531487544789e-11       9.485054624115e-12      -6.801083049571e-15 
   41       1.752301945702e-10       8.602243818341e-15       2.270893897522e-13       0.000000000000e+00       8.107434142371e-11       9.055170335020e-12      -6.434073068732e-15 
   42       1.778551588456e-10       9.320700936955e-15       2.154980752576e-13       0.000000000000e+00       7.710889632810e-11       8.647015029885e-12      -6.579027481953e-15 
   43       1.805057840922e-10       1.007643388353e-14       2.024247063712e-13       0.000000000000e+00       7.340798584530e-11       8.261868444098e-12      -7.046068073141e-15 
   44       1.831853222915e-10       1.087015025712e-14       1.878242415438e-13       0.000000000000e+00       6.994465418739e-11       7.899873635827e-12      -7.599033802579e-15 
   45       1.858948563655e-10       1.170249132753e-14       1.716500827930e-13       0.000000000000e+00       6.668516229068e-11       7.560313598150e-12      -8.011510355197e-15 
   46       1.886363793350e-10       1.257390718175e-14       1.538564861766e-13       0.000000000000e+00       6.362434747042e-11       7.242779057369e-12      -8.261544075671e-15 
   47       1.914101044006e-10       1.348474214413e-14       1.343964021218e-13       0.000000000000e+00       6.075861441482e-11       6.946177027351e-12      -8.390339220569e-15 
   48       1.942132868796e-10       1.443526509181e-14       1.132205134151e-13       0.000000000000e+00       5.807527063254e-11       6.668305219577e-12      -8.449012401151e-15 
   49       1.970399700545e-10       1.542566609502e-14       9.027700509626e-14       0.000000000000e+00       5.555185017738e-11       6.405772253908e-12      -8.499159753804e-15 
   50       1.998837449458e-10       1.645608433707e-14       6.551768620443e-14       0.000000000000e+00       5.316287237797e-11       6.154983144459e-12      -8.599416814626e-15 
   51       2.027475023887e-10       1.752670860321e-14       3.891884781974e-14       0.000000000000e+00       5.090384977942e-11       5.915596223734e-12      -8.759521467680e-15 
   52       2.056358887307e-10       1.863769826090e-14       1.046566894886e-14       0.000000000000e+00       4.877262790267e-11       5.687866640882e-12      -8.974762292179e-15 
   53       2.085524136108e-10       1.978915252122e-14      -1.985357331962e-14       0.000000000000e+00       4.676220115285e-11       5.471634143412e-12      -9.238806236556e-15 
   54       2.114993376397e-10       2.098110855116e-14      -5.204743501048e-14       0.000000000000e+00       4.486038642661e-11       5.266293418553e-12      -9.543606622029e-15 
   55       2.144779767928e-10       2.221355405217e-14      -8.612184091958e-14       0.000000000000e+00       4.305353462875e-11       5.071054418132e-12      -9.878961416873e-15 
   56       2.174899614548e-10       2.348647297970e-14      -1.220820050397e-13       0.000000000000e+00       4.133949267250e-11       4.885867009363e-12      -1.023127031264e-14 
   57       2.205360934121e-10       2.479980787494e-14      -1.599308666931e-13       0.000000000000e+00       3.971728981584e-11       4.710674077720e-12      -1.058430774001e-14 
   58       2.236158625508e-10       2.615344509832e-14      -1.996684835979e-13       0.000000000000e+00       3.818321648053e-11       4.545123707630e-12      -1.091944222225e-14 
   59       2.267273507722e-10       2.754721350550e-14      -2.412919866148e-13       0.000000000000e+00       3.673065518046e-11       4.388550821888e-12      -1.121553075301e-14 
   60       2.298671359089e-10       2.898088312323e-14      -2.847955344918e-13       0.000000000000e+00       3.534991145007e-11       4.239958821071e-12      -1.144881317401e-14 
   61       2.330317499476e-10       3.045411309617e-14      -3.301711198727e-13       0.000000000000e+00       3.403090219763e-11       4.098292140897e-12      -1.159849189917e-14 
   62       2.362226535531e-10       3.196628486932e-14      -3.774113011085e-13       0.000000000000e+00       3.277230839679e-11       3.963366951820e-12      -1.166517356978e-14 
   63       2.394422127079e-10       3.351662904159e-14      -4.265070061164e-13       0.000000000000e+00       3.157418614393e-11       3.835117734488e-12      -1.165639823664e-14 
   64       2.426921970945e-10       3.510426991521e-14      -4.774467173439e-13       0.000000000000e+00       3.043521366453e-11       3.713315846878e-12      -1.158139257322e-14 
   65       2.459737333282e-10       3.672822256207e-14      -5.302164535243e-13       0.000000000000e+00       2.935261290547e-11       3.597560394312e-12      -1.145114464520e-14 
   66       2.492872581901e-10       3.838738989002e-14      -5.847997514326e-13       0.000000000000e+00       2.832207112737e-11       3.487269099480e-12      -1.127847867988e-14 
   67       2.526324718597e-10       4.008055970923e-14      -6.411776476413e-13       0.000000000000e+00       2.733766249687e-11       3.381669172462e-12      -1.107812983573e-14 
   68       2.560088802229e-10       4.180651328828e-14      -6.993286568350e-13       0.000000000000e+00       2.639342828777e-11       3.280000193908e-12      -1.086419906771e-14 
   69       2.594176539362e-10       4.356438312289e-14      -7.592287424354e-13       0.000000000000e+00       2.548866456044e-11       3.182190909989e-12      -1.064175173628e-14 
   70       2.628600637739e-10       4.535336272344e-14      -8.208513072219e-13       0.000000000000e+00       2.462356997330e-11       3.088303802527e-12      -1.041364315294e-14 
   71       2.663368937505e-10       4.717260145857e-14      -8.841671782426e-13       0.000000000000e+00       2.379764663029e-11       2.998331568424e-12      -1.018299548688e-14 
   72       2.698484094192e-10       4.902120447287e-14      -9.491445884814e-13       0.000000000000e+00       2.300966409280e-11       2.912193412021e-12      -9.953205529227e-15 
   73       2.733943261705e-10       5.089823260460e-14      -1.015749158526e-12       0.000000000000e+00       2.225762339173e-11       2.829731337448e-12      -9.727952457357e-15 
   74       2.769737775315e-10       5.280270230345e-14      -1.083943878236e-12       0.000000000000e+00       2.153872103939e-11       2.750706440973e-12      -9.511205599115e-15 
   75       2.805852834641e-10       5.473358554819e-14      -1.153689088409e-12       0.000000000000e+00       2.084931304153e-11       2.674795203359e-12      -9.307232197112e-15 
   76       2.842274057951e-10       5.668976436970e-14      -1.224944009588e-12       0.000000000000e+00       2.018581797633e-11       2.601673712393e-12      -9.119834361726e-15 
   77       2.879009225682e-10       5.866988502743e-14      -1.297671690847e-12       0.000000000000e+00       1.954769590570e-11       2.531296257393e-12      -8.949882125564e-15 
   78       2.916069944429e-10       6.067247696827e-14      -1.371834934325e-12       0.000000000000e+00       1.893494982362e-11       2.463661037738e-12      -8.797342545644e-15 
   79       2.953464954126e-10       6.269599486552e-14      -1.447394841326e-12       0.000000000000e+00       1.834721831927e-11       2.398724865869e-12      -8.662002694092e-15 
   80       2.991199951934e-10       6.473881760578e-14      -1.524310825712e-12       0.000000000000e+00       1.778375884529e-11       2.336401262722e-12      -8.543461616310e-15 
   81       3.029277416133e-10       6.679924727578e-14      -1.602540627293e-12       0.000000000000e+00       1.724343098611e-11       2.276558553161e-12      -8.441122289124e-15 
   82       3.067696430010e-10       6.887550814929e-14      -1.682040325225e-12       0.000000000000e+00       1.672467972625e-11       2.219017961405e-12      -8.354183578947e-15 
   83       3.106452505747e-10       7.096574567396e-14      -1.762764351398e-12       0.000000000000e+00       1.622551871866e-11       2.163551706464e-12      -8.281632199937e-15 
   84       3.145540537022e-10       7.306808649825e-14      -1.844664887140e-12       0.000000000000e+00       1.574401206815e-11       2.109938026546e-12      -8.222203251875e-15 
   85       3.184964604967e-10       7.518083220524e-14      -1.927689909068e-12       0.000000000000e+00       1.527984810047e-11       2.058140905024e-12      -8.174271932680e-15 
   86       3.224729482500e-10       7.730229598755e-14      -2.011784842330e-12       0.000000000000e+00       1.483299702715e-11       2.008156785826e-12      -8.135929046337e-15 
   87       3.264837528442e-10       7.943074447547e-14      -2.096893151474e-12       0.000000000000e+00       1.440322739694e-11       1.959959359744e-12      -8.105002383463e-15 
   88       3.305288563989e-10       8.156439774962e-14      -2.182956343482e-12       0.000000000000e+00       1.399009774253e-11       1.913498616657e-12      -8.079048151392e-15 
   89       3.346079749189e-10       8.370142935377e-14      -2.269913970793e-12       0.000000000000e+00       1.359294822729e-11       1.868699897750e-12      -8.055342404260e-15 
   90       3.387205459411e-10       8.583996630756e-14      -2.357703634335e-12       0.000000000000e+00       1.321089229192e-11       1.825462947736e-12      -8.030872473093e-15 
   91       3.428657161818e-10       8.797808911926e-14      -2.446260986551e-12       0.000000000000e+00       1.284280830127e-11       1.783660967077e-12      -8.002328395890e-15 
   92       3.470423291842e-10       9.011383179847e-14      -2.535519734430e-12       0.000000000000e+00       1.248733119095e-11       1.743139664209e-12      -7.966094347714e-15 
   93       3.512492730362e-10       9.224521483027e-14      -2.625412851619e-12       0.000000000000e+00       1.214317571874e-11       1.703755639969e-12      -7.919103462889e-15 
   94       3.554866101792e-10       9.437034974254e-14      -2.715876416737e-12       0.000000000000e+00       1.181017997542e-11       1.665500203299e-12      -7.861567982015e-15 
   95       3.597545954742e-10       9.648735036228e-14      -2.806846360629e-12       0.000000000000e+00       1.148840410388e-11       1.628392511737e-12      -7.794645784959e-15 
   96       3.640533239610e-10       9.859430171461e-14      -2.898257328079e-12       0.000000000000e+00       1.117780892811e-11       1.592441496045e-12      -7.719616823029e-15 
   97       3.683827234477e-10       1.006892604879e-13      -2.990042697437e-12       0.000000000000e+00       1.087825215180e-11       1.557645452331e-12      -7.637886400701e-15 
   98       3.727425471012e-10       1.027702554990e-13      -3.082134600242e-12       0.000000000000e+00       1.058948455689e-11       1.523991634187e-12      -7.550988457350e-15 
   99       3.771323660362e-10       1.048352881586e-13      -3.174463940850e-12       0.000000000000e+00       1.031114620222e-11       1.491455844808e-12      -7.460588848974e-15 
  100       3.815515619060e-10       1.068823329361e-13      -3.266960416056e-12       0.000000000000e+00       1.004276262211e-11       1.460002029126e-12      -7.368488629926e-15 
  101       3.859993194920e-10       1.089093378251e-13      -3.359552534723e-12       0.000000000000e+00       9.783741024946e-12       1.429581865934e-12      -7.276627334639e-15 
  102       3.904746192934e-10       1.109142248086e-13      -3.452167637404e-12       0.000000000000e+00       9.533366491803e-12       1.400134360017e-12      -7.187086259354e-15 
  103       3.949762301175e-10       1.128948903238e-13      -3.544731915972e-12       0.000000000000e+00       9.290798175029e-12       1.371585434279e-12      -7.102091743852e-15 
  104       3.995029635921e-10       1.148492567407e-13      -3.637170986651e-12       0.000000000000e+00       9.055259540279e-12       1.343864836579e-12      -7.023530867612e-15 
  105       4.040544928188e-10       1.167754337124e-13      -3.729411655029e-12       0.000000000000e+00       8.826646548248e-12       1.316960339791e-12      -6.951416961691e-15 
  106       4.086306310081e-10       1.186715795897e-13      -3.821380427169e-12       0.000000000000e+00       8.604994924987e-12       1.290870137076e-12      -6.885221962964e-15 
  107       4.132310749551e-10       1.205358533675e-13      -3.913003002890e-12       0.000000000000e+00       8.390291806009e-12       1.265585966011e-12      -6.824343437948e-15 
