# dimensionless total [l(l+1)/2pi] C_l's
# for l=2 to 3000, i.e. number of multipoles equal to 2999
#
# -> if you prefer output in CAMB/HealPix/LensPix units/order, set 'format' to 'camb' in input file
# -> if you don't want to see such a header, set 'headers' to 'no' in input file
# -> for CMB lensing (phi), these are C_l^phi-phi for the lensing potential.
#    Remember the conversion factors:
#    C_l^dd (deflection) = l(l+1) C_l^phi-phi
#    C_l^gg (shear/convergence) = 1/4 (l(l+1))^2 C_l^phi-phi
#
# 1:l     2:TT                     3:EE                     4:TE                     5:BB                     6:phiphi                 7:TPhi                   8:Ephi               
    2       1.513653128904e-10       4.793901540018e-15       3.799482919935e-13       0.000000000000e+00       8.309208880520e-09       5.059431254598e-10      -2.012649168688e-12 
    3       1.417620533617e-10       6.054269227232e-15       4.281328776802e-13       0.000000000000e+00       5.129976207699e-09       3.573268938211e-10      -1.512238920717e-12 
    4       1.331030874349e-10       5.148481965136e-15       3.998293331518e-13       0.000000000000e+00       3.573527355012e-09       2.695931783436e-10      -9.768245566193e-13 
    5       1.266666147587e-10       3.372564284006e-15       3.392046746853e-13       0.000000000000e+00       2.668823890415e-09       2.123222191597e-10      -5.310566118357e-13 
    6       1.222168552729e-10       1.855370975005e-15       2.716327455870e-13       0.000000000000e+00       2.084744735885e-09       1.723411825499e-10      -2.072770872009e-13 
    7       1.192668298513e-10       9.974717218486e-16       2.117817014003e-13       0.000000000000e+00       1.680680627520e-09       1.430961995938e-10      -5.100595319039e-15 
    8       1.174577100976e-10       6.487514712154e-16       1.659782603162e-13       0.000000000000e+00       1.387233403191e-09       1.209800411972e-10       9.389937221956e-14 
    9       1.164909280257e-10       5.211239626419e-16       1.355002759307e-13       0.000000000000e+00       1.166734161360e-09       1.038419021693e-10       1.170685961890e-13 
   10       1.161188809569e-10       4.391067189474e-16       1.187420813630e-13       0.000000000000e+00       9.966546581940e-10       9.028161122697e-11       9.394891202994e-14 
   11       1.162450294315e-10       3.650701032441e-16       1.126670990045e-13       0.000000000000e+00       8.432616232665e-10       7.968685985825e-11       5.144570670107e-14 
   12       1.167235267408e-10       3.173459867100e-16       1.138504950278e-13       0.000000000000e+00       7.367298513660e-10       7.043716316106e-11       8.500383990828e-15 
   13       1.174848138619e-10       3.044886714157e-16       1.193236797929e-13       0.000000000000e+00       6.492771402550e-10       6.289448296365e-11      -2.257835945046e-14 
   14       1.184561800500e-10       3.152695057647e-16       1.269074766024e-13       0.000000000000e+00       5.765162613023e-10       5.630804570602e-11      -3.808381351292e-14 
   15       1.196354010160e-10       3.376691868042e-16       1.351854756300e-13       0.000000000000e+00       5.152709821672e-10       5.077139440695e-11      -3.912098644016e-14 
   16       1.209629154514e-10       3.710911049567e-16       1.435539153004e-13       0.000000000000e+00       4.631991551224e-10       4.602162206779e-11      -3.059264559597e-14 
   17       1.224284236538e-10       4.221645312744e-16       1.519140007160e-13       0.000000000000e+00       4.185314337105e-10       4.189357815667e-11      -1.835862567710e-14 
   18       1.239838686655e-10       4.958266951269e-16       1.605057727804e-13       0.000000000000e+00       3.797644411338e-10       3.827116347427e-11      -7.625156889100e-15 
   19       1.256407616121e-10       5.918316872733e-16       1.695696562864e-13       0.000000000000e+00       3.462797682521e-10       3.511470932264e-11      -8.583918639251e-16 
   20       1.273778752359e-10       7.076333611138e-16       1.792853172324e-13       0.000000000000e+00       3.167897532294e-10       3.233042828265e-11       6.149207879426e-16 
   21       1.292014455547e-10       8.426273474583e-16       1.896060788702e-13       0.000000000000e+00       2.908311859915e-10       2.986689664744e-11      -2.207178002416e-15 
   22       1.310930469070e-10       9.964646552787e-16       2.003099404617e-13       0.000000000000e+00       2.677821875964e-10       2.764756121193e-11      -7.115096155826e-15 
   23       1.330506956441e-10       1.168912533166e-15       2.109573216149e-13       0.000000000000e+00       2.473258919598e-10       2.564976915705e-11      -1.224049647475e-14 
   24       1.350573162892e-10       1.359693986009e-15       2.210050233772e-13       0.000000000000e+00       2.289897639621e-10       2.384588657919e-11      -1.575920308731e-14 
   25       1.371237816970e-10       1.569353662207e-15       2.301821504273e-13       0.000000000000e+00       2.125580737075e-10       2.222841245909e-11      -1.704021660689e-14 
   26       1.392506906047e-10       1.798901361478e-15       2.383130953861e-13       0.000000000000e+00       1.977332654024e-10       2.077769220911e-11      -1.603140443536e-14 
   27       1.414238608678e-10       2.050394143528e-15       2.453302263139e-13       0.000000000000e+00       1.843373836812e-10       1.946538032950e-11      -1.354517569923e-14 
   28       1.436164632234e-10       2.326204060016e-15       2.512280538795e-13       0.000000000000e+00       1.721393931305e-10       1.825347306128e-11      -1.073967230996e-14 
   29       1.458386634273e-10       2.627778011104e-15       2.560720546072e-13       0.000000000000e+00       1.610769288002e-10       1.714080377258e-11      -8.250693682887e-15 
   30       1.481014677040e-10       2.956260190839e-15       2.599855682881e-13       0.000000000000e+00       1.510311511020e-10       1.612916384780e-11      -6.644932111946e-15 
   31       1.504048667626e-10       3.312724505411e-15       2.630937422146e-13       0.000000000000e+00       1.417970945613e-10       1.521077210182e-11      -6.413181741746e-15 
   32       1.527512542346e-10       3.698089867945e-15       2.653409480284e-13       0.000000000000e+00       1.333269950035e-10       1.437521661828e-11      -7.274860049260e-15 
   33       1.551341877575e-10       4.113158628199e-15       2.666037550062e-13       0.000000000000e+00       1.255608730939e-10       1.360314773006e-11      -8.596396516052e-15 
   34       1.575403996164e-10       4.558686401134e-15       2.667409261064e-13       0.000000000000e+00       1.183899642047e-10       1.287158544861e-11      -9.698146728127e-15 
   35       1.599743348951e-10       5.035580439724e-15       2.656101661145e-13       0.000000000000e+00       1.117775053445e-10       1.218243716908e-11      -1.034697399016e-14 
   36       1.624404329279e-10       5.544762502779e-15       2.630545212340e-13       0.000000000000e+00       1.056703949554e-10       1.154312930666e-11      -1.042938069825e-14 
   37       1.649381411390e-10       6.087099696776e-15       2.589303995799e-13       0.000000000000e+00       9.998909417290e-11       1.095793874199e-11      -9.879637046247e-15 
   38       1.674699224440e-10       6.663357927236e-15       2.532239206299e-13       0.000000000000e+00       9.471887696872e-11       1.042497883506e-11      -8.879557810539e-15 
   39       1.700346634436e-10       7.274226127346e-15       2.459737004773e-13       0.000000000000e+00       8.984297783968e-11       9.937661412284e-12      -7.729572204623e-15 
   40       1.726246928185e-10       7.920322984253e-15       2.372415030736e-13       0.000000000000e+00       8.531483624242e-11       9.485051901745e-12      -6.801078818625e-15 
   41       1.752301145456e-10       8.602239790379e-15       2.270892852435e-13       0.000000000000e+00       8.107430417379e-11       9.055167728380e-12      -6.434068390999e-15 
   42       1.778550779429e-10       9.320696536117e-15       2.154979741978e-13       0.000000000000e+00       7.710886090350e-11       8.647012590375e-12      -6.579021877870e-15 
   43       1.805057020969e-10       1.007642909549e-14       2.024246091291e-13       0.000000000000e+00       7.340795212209e-11       8.261866201186e-12      -7.046061496342e-15 
   44       1.831852389500e-10       1.087014508300e-14       1.878241485783e-13       0.000000000000e+00       6.994462205584e-11       7.899871592204e-12      -7.599026729644e-15 
   45       1.858947714028e-10       1.170248578147e-14       1.716499946955e-13       0.000000000000e+00       6.668513165831e-11       7.560311729635e-12      -8.011503724904e-15 
   46       1.886362925365e-10       1.257390127159e-14       1.538564037970e-13       0.000000000000e+00       6.362431824731e-11       7.242777329422e-12      -8.261538710849e-15 
   47       1.914100156499e-10       1.348473586415e-14       1.343963266378e-13       0.000000000000e+00       6.075858651245e-11       6.946175399459e-12      -8.390335621524e-15 
   48       1.942131961789e-10       1.443525842010e-14       1.132204463811e-13       0.000000000000e+00       5.807524396791e-11       6.668303645046e-12      -8.449010677707e-15 
   49       1.970398775473e-10       1.542565899067e-14       9.027694849525e-14       0.000000000000e+00       5.555182467740e-11       6.405770679655e-12      -8.499159553575e-15 
   50       1.998836508980e-10       1.645607674298e-14       6.551764235329e-14       0.000000000000e+00       5.316284798087e-11       6.154981512739e-12      -8.599417366833e-15 
   51       2.027474070327e-10       1.752670046790e-14       3.891881878523e-14       0.000000000000e+00       5.090382642536e-11       5.915594480282e-12      -8.759522019284e-15 
   52       2.056357922121e-10       1.863768954623e-14       1.046565632466e-14       0.000000000000e+00       4.877260553270e-11       5.687864738388e-12      -8.974762251680e-15 
   53       2.085523159719e-10       1.978914320488e-14      -1.985356850342e-14       0.000000000000e+00       4.676217971117e-11       5.471632043318e-12      -9.238805209623e-15 
   54       2.114992388029e-10       2.098109862937e-14      -5.204741238248e-14       0.000000000000e+00       4.486036586291e-11       5.266291092941e-12      -9.543604448974e-15 
   55       2.144778765714e-10       2.221354353761e-14      -8.612180069732e-14       0.000000000000e+00       4.305351489892e-11       5.071051852135e-12      -9.878958163713e-15 
   56       2.174898596551e-10       2.348646188377e-14      -1.220819474078e-13       0.000000000000e+00       4.133947373342e-11       4.885864205058e-12      -1.023126610515e-14 
   57       2.205359898654e-10       2.479979620202e-14      -1.599307916040e-13       0.000000000000e+00       3.971727162488e-11       4.710671057072e-12      -1.058430271905e-14 
   58       2.236157571194e-10       2.615343284449e-14      -1.996683907282e-13       0.000000000000e+00       3.818319899680e-11       4.545120515159e-12      -1.091943654387e-14 
   59       2.267272433561e-10       2.754720065712e-14      -2.412918753187e-13       0.000000000000e+00       3.673063836619e-11       4.388547527448e-12      -1.121552458858e-14 
   60       2.298670264527e-10       2.898086965556e-14      -2.847954037535e-13       0.000000000000e+00       3.534989527200e-11       4.239955522740e-12      -1.144880671029e-14 
   61       2.330316384448e-10       3.045409897449e-14      -3.301709683490e-13       0.000000000000e+00       3.403088662720e-11       4.098288959885e-12      -1.159848533122e-14 
   62       2.362225400420e-10       3.196627005876e-14      -3.774111274758e-13       0.000000000000e+00       3.277229340607e-11       3.963364001071e-12      -1.166516707049e-14 
   63       2.394420972749e-10       3.351661351011e-14      -4.265068091785e-13       0.000000000000e+00       3.157417170496e-11       3.835115107855e-12      -1.165639194436e-14 
   64       2.426920798800e-10       3.510425363413e-14      -4.774464960531e-13       0.000000000000e+00       3.043519974997e-11       3.713313615729e-12      -1.158138658579e-14 
   65       2.459736145325e-10       3.672820550665e-14      -5.302162070034e-13       0.000000000000e+00       2.935259948926e-11       3.597558604001e-12      -1.145113901369e-14 
   66       2.492871380797e-10       3.838737204001e-14      -5.847994789976e-13       0.000000000000e+00       2.832205818541e-11       3.487267765665e-12      -1.127847340214e-14 
   67       2.526323507738e-10       4.008054104948e-14      -6.411773488249e-13       0.000000000000e+00       2.733765000784e-11       3.381668277281e-12      -1.107812484966e-14 
   68       2.560087585517e-10       4.180649380830e-14      -6.993283313523e-13       0.000000000000e+00       2.639341623305e-11       3.279999688543e-12      -1.086419425916e-14 
   69       2.594175320051e-10       4.356436281303e-14      -7.592283899578e-13       0.000000000000e+00       2.548865292178e-11       3.182190738217e-12      -1.064174699500e-14 
   70       2.628599418032e-10       4.535334157384e-14      -8.208509273054e-13       0.000000000000e+00       2.462355873234e-11       3.088303907294e-12      -1.041363838975e-14 
   71       2.663367718414e-10       4.717257945900e-14      -8.841667703105e-13       0.000000000000e+00       2.379763576891e-11       2.998331892290e-12      -1.018299063701e-14 
   72       2.698482875393e-10       4.902118161269e-14      -9.491441518072e-13       0.000000000000e+00       2.300965359346e-11       2.912193897625e-12      -9.953200555769e-15 
   73       2.733942041389e-10       5.089820887263e-14      -1.015748692215e-12       0.000000000000e+00       2.225761323781e-11       2.829731927994e-12      -9.727947354803e-15 
   74       2.769736550031e-10       5.280267768786e-14      -1.083943381205e-12       0.000000000000e+00       2.153871121557e-11       2.750707080745e-12      -9.511200397076e-15 
   75       2.805851599139e-10       5.473356003643e-14      -1.153688559370e-12       0.000000000000e+00       2.084930353420e-11       2.674795838253e-12      -9.307226964128e-15 
   76       2.842272805491e-10       5.668973794862e-14      -1.224943447090e-12       0.000000000000e+00       2.018580877352e-11       2.601674290411e-12      -9.119829199149e-15 
   77       2.879007949865e-10       5.866985768440e-14      -1.297671093533e-12       0.000000000000e+00       1.954768699568e-11       2.531296728978e-12      -8.949877129208e-15 
   78       2.916068639778e-10       6.067244869154e-14      -1.371834301015e-12       0.000000000000e+00       1.893494119468e-11       2.463661356279e-12      -8.797337793989e-15 
   79       2.953463616219e-10       6.269596564427e-14      -1.447394171038e-12       0.000000000000e+00       1.834720995987e-11       2.398724988287e-12      -8.661998245969e-15 
   80       2.991198577545e-10       6.473878743017e-14      -1.524310117682e-12       0.000000000000e+00       1.778375074423e-11       2.336401150076e-12      -8.543457508498e-15 
   81       3.029276003370e-10       6.679921613705e-14      -1.602539881000e-12       0.000000000000e+00       1.724342313271e-11       2.276558171275e-12      -8.441118533876e-15 
   82       3.067694978465e-10       6.887547603978e-14      -1.682039540412e-12       0.000000000000e+00       1.672467211057e-11       2.219017281520e-12      -8.354180161436e-15 
   83       3.106451016651e-10       7.096571258721e-14      -1.762763528096e-12       0.000000000000e+00       1.622551133165e-11       2.163550705908e-12      -8.281629075619e-15 
   84       3.145539013094e-10       7.306805242899e-14      -1.844664025628e-12       0.000000000000e+00       1.574400490166e-11       2.109936690391e-12      -8.222200350472e-15 
   85       3.184963049312e-10       7.518079714901e-14      -1.927689009618e-12       0.000000000000e+00       1.527984114651e-11       2.058139230867e-12      -8.174269183444e-15 
   86       3.224727898306e-10       7.730225994071e-14      -2.011783905132e-12       0.000000000000e+00       1.483299027773e-11       2.008154786005e-12      -8.135926385431e-15 
   87       3.264835918975e-10       7.943070743515e-14      -2.096892176624e-12       0.000000000000e+00       1.440322084419e-11       1.959957062673e-12      -8.104999754994e-15 
   88       3.305286932584e-10       8.156435971378e-14      -2.182955330965e-12       0.000000000000e+00       1.399009137878e-11       1.913496068194e-12      -8.079045508480e-15 
   89       3.346078099234e-10       8.370139032121e-14      -2.269912920474e-12       0.000000000000e+00       1.359294204517e-11       1.868697162609e-12      -8.055339710137e-15 
   90       3.387203794343e-10       8.583992627793e-14      -2.357702545940e-12       0.000000000000e+00       1.321088628448e-11       1.825460110929e-12      -8.030869702237e-15 
   91       3.428655485109e-10       8.797804809307e-14      -2.446259859656e-12       0.000000000000e+00       1.284280246207e-11       1.783658135404e-12      -8.002325535198e-15 
   92       3.470421606986e-10       9.011378977714e-14      -2.535518568444e-12       0.000000000000e+00       1.248732551418e-11       1.743136967771e-12      -7.966091397697e-15 
   93       3.512491040798e-10       9.224517181610e-14      -2.625411645805e-12       0.000000000000e+00       1.214317019920e-11       1.703753225985e-12      -7.919100436091e-15 
   94       3.554864410592e-10       9.437030573867e-14      -2.715875170349e-12       0.000000000000e+00       1.181017460795e-11       1.665498205367e-12      -7.861564892507e-15 
   95       3.597544264497e-10       9.648730537271e-14      -2.806845072948e-12       0.000000000000e+00       1.148839888333e-11       1.628391040002e-12      -7.794642645471e-15 
   96       3.640531552378e-10       9.859425574417e-14      -2.898255998418e-12       0.000000000000e+00       1.117780384934e-11       1.592440634724e-12      -7.719613644774e-15 
   97       3.683825551733e-10       1.006892135423e-13      -2.990041325141e-12       0.000000000000e+00       1.087824720972e-11       1.557645257171e-12      -7.637883193198e-15 
   98       3.727423793589e-10       1.027702075848e-13      -3.082133184694e-12       0.000000000000e+00       1.058947974654e-11       1.523992129846e-12      -7.550985228236e-15 
   99       3.771321988403e-10       1.048352392833e-13      -3.174462481471e-12       0.000000000000e+00       1.031114151881e-11       1.491457022174e-12      -7.460585603819e-15 
  100       3.815513951956e-10       1.068822831080e-13      -3.266958912309e-12       0.000000000000e+00       1.004275806106e-11       1.460003842568e-12      -7.368485372035e-15 
  101       3.859991531255e-10       1.089092870534e-13      -3.359550986115e-12       0.000000000000e+00       9.783736581951e-12       1.429584230480e-12      -7.276624064857e-15 
  102       3.904744530424e-10       1.109141731034e-13      -3.452166043491e-12       0.000000000000e+00       9.533362162891e-12       1.400137148465e-12      -7.187082975857e-15 
  103       3.949760636611e-10       1.128948376962e-13      -3.544730276359e-12       0.000000000000e+00       9.290793956614e-12       1.371588474242e-12      -7.102088441940e-15 
  104       3.995027965315e-10       1.148492032026e-13      -3.637169301011e-12       0.000000000000e+00       9.055255429133e-12       1.343867919421e-12      -7.023527540561e-15 
  105       4.040543247602e-10       1.167753792767e-13      -3.729409923153e-12       0.000000000000e+00       8.826642541191e-12       1.316963267229e-12      -6.951413604958e-15 
  106       4.086304615867e-10       1.186715242700e-13      -3.821378648989e-12       0.000000000000e+00       8.604991018823e-12       1.290872735106e-12      -6.885218575488e-15 
  107       4.132309038386e-10       1.205357971784e-13      -3.913001178488e-12       0.000000000000e+00       8.390287997550e-12       1.265588087376e-12      -6.824340022427e-15 
