# Matter power spectrum P(k) at redshift z=99
# for k=1.00899e-05 to 203.102 h/Mpc,
# number of wavenumbers equal to 845
#    1:k (h/Mpc)              2:P (Mpc/h)^3        
       1.008985923246e-05       1.493219031381e-02 
       2.251775554681e-05       1.312851199576e-02 
       3.498636120247e-05       2.159535030229e-02 
       4.752690064658e-05       3.345987411094e-02 
       6.017107953230e-05       4.474894577759e-02 
       7.295134796122e-05       5.755144089454e-02 
       8.590117158737e-05       6.884491301660e-02 
       9.905531395762e-05       7.885623685510e-02 
       1.124501334903e-04       8.842285425803e-02 
       1.261238985241e-04       9.850634414155e-02 
       1.401171238832e-04       1.083223567919e-01 
       1.544729323814e-04       1.187585451804e-01 
       1.692374445844e-04       1.296997733125e-01 
       1.844601999316e-04       1.406698863397e-01 
       2.001946119095e-04       1.517441843747e-01 
       2.164984592990e-04       1.634016533408e-01 
       2.334344144703e-04       1.757024006388e-01 
       2.510706081373e-04       1.882796357002e-01 
       2.694812277303e-04       2.016582186431e-01 
       2.887471433953e-04       2.154174498503e-01 
       3.089565513139e-04       2.298105769746e-01 
       3.302056182976e-04       2.448940175711e-01 
       3.525991041420e-04       2.607536781712e-01 
       3.762509287930e-04       2.774380370778e-01 
       4.012846398372e-04       2.950900759890e-01 
       4.278337222871e-04       3.137625571615e-01 
       4.560416775835e-04       3.334971694934e-01 
       4.860617833145e-04       3.545085589156e-01 
       5.180564313506e-04       3.767932855918e-01 
       5.521959330389e-04       4.005814671667e-01 
       5.886566801031e-04       4.258133659926e-01 
       6.276185643138e-04       4.527033304044e-01 
       6.692615934693e-04       4.813872331017e-01 
       7.137617003222e-04       5.118790553008e-01 
       7.612858261435e-04       5.443483064582e-01 
       8.119864671932e-04       5.788796209285e-01 
       8.659959882004e-04       6.154832837815e-01 
       9.234211115548e-04       6.542255690760e-01 
       9.843380583382e-04       6.951906318229e-01 
       1.048788822492e-03       7.383201029442e-01 
       1.116778986862e-03       7.835870737300e-01 
       1.188277341593e-03       8.309854695974e-01 
       1.263217364035e-03       8.803916954996e-01 
       1.341500403710e-03       9.317033711637e-01 
       1.423000229794e-03       9.847771364385e-01 
       1.507568477172e-03       1.039585127058e+00 
       1.595040487037e-03       1.095871373939e+00 
       1.685241074673e-03       1.153512426906e+00 
       1.777989849548e-03       1.212372347743e+00 
       1.873105833077e-03       1.272286050492e+00 
       1.970411240942e-03       1.333099075548e+00 
       2.069734400901e-03       1.394655741985e+00 
       2.170911853969e-03       1.456835387612e+00 
       2.273789735124e-03       1.519505150110e+00 
       2.378224553043e-03       1.582520876752e+00 
       2.484083492891e-03       1.645794460329e+00 
       2.591244358339e-03       1.709197570430e+00 
       2.699595254278e-03       1.772641065052e+00 
       2.809034094327e-03       1.836031326352e+00 
       2.919467999818e-03       1.899287023874e+00 
       3.030812641170e-03       1.962337505276e+00 
       3.142991559080e-03       2.025098821875e+00 
       3.255935491967e-03       2.087516753266e+00 
       3.369581727509e-03       2.149533535020e+00 
       3.483873489548e-03       2.211092760401e+00 
       3.598759366763e-03       2.272144934114e+00 
       3.714192786088e-03       2.332650144062e+00 
       3.830131531369e-03       2.392568459955e+00 
       3.946537306183e-03       2.451858638529e+00 
       4.063375338686e-03       2.510496344561e+00 
       4.180614025754e-03       2.568445330565e+00 
       4.298224613405e-03       2.625685057042e+00 
       4.416180910359e-03       2.682190000449e+00 
       4.534459031676e-03       2.737938043221e+00 
       4.653037169509e-03       2.792914218231e+00 
       4.771895388214e-03       2.847101684872e+00 
       4.891015441268e-03       2.900486597491e+00 
       5.010380607654e-03       2.953056659991e+00 
       5.129975545600e-03       3.004801962822e+00 
       5.249786161774e-03       3.055715965555e+00 
       5.369799494223e-03       3.105790788443e+00 
       5.490003607536e-03       3.155022016425e+00 
       5.610387498875e-03       3.203403969880e+00 
       5.730941013670e-03       3.250937783326e+00 
       5.851654769906e-03       3.297621848631e+00 
       5.972520090067e-03       3.343453943815e+00 
       6.093528939880e-03       3.388436483463e+00 
       6.214673873133e-03       3.432571266560e+00 
       6.335947981902e-03       3.475863387702e+00 
       6.457344851613e-03       3.518313050449e+00 
       6.578858520406e-03       3.559925222788e+00 
       6.700483442374e-03       3.600704552830e+00 
       6.822214454238e-03       3.640659678979e+00 
       6.944046745134e-03       3.679792418370e+00 
       7.065975829162e-03       3.718114502329e+00 
       7.187997520434e-03       3.755633721146e+00 
       7.310107910369e-03       3.792353684675e+00 
       7.432303346994e-03       3.828278510193e+00 
       7.554580416072e-03       3.863423870894e+00 
       7.676935923868e-03       3.897799797128e+00 
       7.799366881390e-03       3.931407348278e+00 
       7.921870489981e-03       3.964253471267e+00 
       8.044444128110e-03       3.996360164983e+00 
       8.167085339271e-03       4.027725141278e+00 
       8.289791820870e-03       4.058362426298e+00 
       8.412561414027e-03       4.088283950249e+00 
       8.535392094189e-03       4.117488527988e+00 
       8.658281962499e-03       4.145994541925e+00 
       8.781229237845e-03       4.173807454386e+00 
       8.904232249532e-03       4.200938919108e+00 
       9.027289430517e-03       4.227395948540e+00 
       9.150399311169e-03       4.253185971172e+00 
       9.273560513504e-03       4.278325618964e+00 
       9.396771745844e-03       4.302814625279e+00 
       9.520031797890e-03       4.326665460782e+00 
       9.643339536152e-03       4.349886038022e+00 
       9.766693899710e-03       4.372481849676e+00 
       9.890093896300e-03       4.394468228735e+00 
       1.001353859866e-02       4.415848089044e+00 
       1.013702714118e-02       4.436636114297e+00 
       1.026055871672e-02       4.456828540346e+00 
       1.038413257374e-02       4.476441179788e+00 
       1.050774801356e-02       4.495485627238e+00 
       1.063140438788e-02       4.513953650774e+00 
       1.075510109639e-02       4.531869865848e+00 
       1.087883758462e-02       4.549234413453e+00 
       1.100261334193e-02       4.566053038911e+00 
       1.112642789957e-02       4.582336192255e+00 
       1.125028082899e-02       4.598085110640e+00 
       1.137417174014e-02       4.613316531123e+00 
       1.149810028000e-02       4.628021482554e+00 
       1.162206613114e-02       4.642222147346e+00 
       1.174606901039e-02       4.655912137733e+00 
       1.187010866765e-02       4.669107955848e+00 
       1.199418488471e-02       4.681812830828e+00 
       1.211829747421e-02       4.694026359076e+00 
       1.224244627862e-02       4.705764170158e+00 
       1.236663116941e-02       4.717022920290e+00 
       1.249085204607e-02       4.727821786431e+00 
       1.261510883545e-02       4.738149409893e+00 
       1.273940149094e-02       4.748026660221e+00 
       1.286372999182e-02       4.757450012229e+00 
       1.298809434267e-02       4.766425399262e+00 
       1.311249457272e-02       4.774960795362e+00 
       1.323693073542e-02       4.783061643454e+00 
       1.336140290784e-02       4.790730005092e+00 
       1.348591119034e-02       4.797980256366e+00 
       1.361045570605e-02       4.804807723284e+00 
       1.373503660061e-02       4.811219274776e+00 
       1.385965404174e-02       4.817224306953e+00 
       1.398430821900e-02       4.822825379918e+00 
       1.410899934352e-02       4.828025652143e+00 
       1.423372764771e-02       4.832836850114e+00 
       1.435849338511e-02       4.837258061053e+00 
       1.448329683018e-02       4.841297103877e+00 
       1.460813827812e-02       4.844957322448e+00 
       1.473301804481e-02       4.848243311109e+00 
       1.485793646664e-02       4.851160195760e+00 
       1.498289390044e-02       4.853715880020e+00 
       1.510789072347e-02       4.855912384194e+00 
       1.523292733332e-02       4.857756156284e+00 
       1.535800414793e-02       4.859249405029e+00 
       1.548312160558e-02       4.860396466375e+00 
       1.560828016494e-02       4.861208628623e+00 
       1.573348030509e-02       4.861678817333e+00 
       1.585872252561e-02       4.861832384293e+00 
       1.598400734663e-02       4.861659418395e+00 
       1.610933530896e-02       4.861151377539e+00 
       1.623470697422e-02       4.860333653770e+00 
       1.636012292492e-02       4.859213092762e+00 
       1.648558376469e-02       4.857775380689e+00 
       1.661109011841e-02       4.856037219356e+00 
       1.673664263240e-02       4.854003976252e+00 
       1.686224197463e-02       4.851675086423e+00 
       1.698788883495e-02       4.849053739339e+00 
       1.711358392534e-02       4.846156872910e+00 
       1.723932798012e-02       4.842964804435e+00 
       1.736512175629e-02       4.839519597887e+00 
       1.749096603375e-02       4.835785047803e+00 
       1.761686161566e-02       4.831790820442e+00 
       1.774280932873e-02       4.827522664834e+00 
       1.786881002356e-02       4.823003689686e+00 
       1.799486457501e-02       4.818229583275e+00 
       1.812097388257e-02       4.813201763875e+00 
       1.824713887072e-02       4.807930236548e+00 
       1.837336048938e-02       4.802410989606e+00 
       1.849963971429e-02       4.796653526762e+00 
       1.862597754748e-02       4.790659659529e+00 
       1.875237501771e-02       4.784436378579e+00 
       1.887883318094e-02       4.777975654261e+00 
       1.900535312085e-02       4.771312419460e+00 
       1.913193594933e-02       4.764421754265e+00 
       1.925858280700e-02       4.757305661825e+00 
       1.938529486380e-02       4.749981374669e+00 
       1.951207331950e-02       4.742443453415e+00 
       1.963891940434e-02       4.734705783160e+00 
       1.976583437961e-02       4.726763570279e+00 
       1.989281953829e-02       4.718627234360e+00 
       2.001987620571e-02       4.710293716271e+00 
       2.014700574018e-02       4.701773484140e+00 
       2.027420953374e-02       4.693049506227e+00 
       2.040148901283e-02       4.684165176257e+00 
       2.052884563906e-02       4.675086386072e+00 
       2.065628090997e-02       4.665830483888e+00 
       2.078379635978e-02       4.656393218271e+00 
       2.091139356027e-02       4.646802261645e+00 
       2.103907412157e-02       4.637031028337e+00 
       2.116683969302e-02       4.627103284489e+00 
       2.129469196411e-02       4.617013582079e+00 
       2.142263266535e-02       4.606765135172e+00 
       2.155066356926e-02       4.596362652559e+00 
       2.167878649131e-02       4.585804273051e+00 
       2.180700329099e-02       4.575091705906e+00 
       2.193531587278e-02       4.564243009793e+00 
       2.206372618728e-02       4.553254124860e+00 
       2.219223623229e-02       4.542116572314e+00 
       2.232084805397e-02       4.530857493293e+00 
       2.244956374803e-02       4.519450230218e+00 
       2.257838546090e-02       4.507918899070e+00 
       2.270731539105e-02       4.496260453747e+00 
       2.283635579024e-02       4.484473484583e+00 
       2.296550896486e-02       4.472568029628e+00 
       2.309477727734e-02       4.460547753569e+00 
       2.322416314755e-02       4.448408145978e+00 
       2.335366905427e-02       4.436151953547e+00 
       2.348329753672e-02       4.423789138874e+00 
       2.361305119610e-02       4.411319483040e+00 
       2.374293269725e-02       4.398742559097e+00 
       2.387294477028e-02       4.386064074635e+00 
       2.400309021230e-02       4.373285624555e+00 
       2.413337188923e-02       4.360406341898e+00 
       2.426379273761e-02       4.347437716547e+00 
       2.439435576650e-02       4.334376223112e+00 
       2.452506405949e-02       4.321223633945e+00 
       2.465592077667e-02       4.307984255456e+00 
       2.478692915676e-02       4.294660789618e+00 
       2.491809251927e-02       4.281253377814e+00 
       2.504941426679e-02       4.267766828864e+00 
       2.518089788722e-02       4.254204658885e+00 
       2.531254695627e-02       4.240572126630e+00 
       2.544436513988e-02       4.226854288698e+00 
       2.557635619681e-02       4.213073345049e+00 
       2.570852398133e-02       4.199224677085e+00 
       2.584087244594e-02       4.185303960600e+00 
       2.597340564424e-02       4.171325662277e+00 
       2.610612773389e-02       4.157284028787e+00 
       2.623904297966e-02       4.143180608624e+00 
       2.637215575665e-02       4.129021939044e+00 
       2.650547055353e-02       4.114806816594e+00 
       2.663899197597e-02       4.100538220758e+00 
       2.677272475021e-02       4.086219401588e+00 
       2.690667372668e-02       4.071849706731e+00 
       2.704084388387e-02       4.057433376169e+00 
       2.717524033223e-02       4.042970666627e+00 
       2.730986831833e-02       4.028463835166e+00 
       2.744473322907e-02       4.013915094731e+00 
       2.757984059617e-02       3.999327542749e+00 
       2.771519610072e-02       3.984699754518e+00 
       2.785080557800e-02       3.970036017757e+00 
       2.798667502244e-02       3.955337754891e+00 
       2.812281059279e-02       3.940606261855e+00 
       2.825921861753e-02       3.925842819254e+00 
       2.839590560043e-02       3.911049299968e+00 
       2.853287822642e-02       3.896227782282e+00 
       2.867014336763e-02       3.881379267661e+00 
       2.880770808975e-02       3.866506087104e+00 
       2.894557965859e-02       3.851608503406e+00 
       2.908376554696e-02       3.836688829037e+00 
       2.922227344183e-02       3.821749303882e+00 
       2.936111125182e-02       3.806790134277e+00 
       2.950028711498e-02       3.791811003930e+00 
       2.963980940692e-02       3.776817108231e+00 
       2.977968674934e-02       3.761807384684e+00 
       2.991992801888e-02       3.746783931642e+00 
       3.006054235642e-02       3.731748918480e+00 
       3.020153917674e-02       3.716699421976e+00 
       3.034292817872e-02       3.701642339921e+00 
       3.048471935591e-02       3.686574939478e+00 
       3.062692300766e-02       3.671501812794e+00 
       3.076954975073e-02       3.656419251672e+00 
       3.091261053153e-02       3.641332878553e+00 
       3.105611663883e-02       3.626239484652e+00 
       3.120007971717e-02       3.611143651644e+00 
       3.134451178094e-02       3.596046505671e+00 
       3.148942522908e-02       3.580946496765e+00 
       3.163483286058e-02       3.565845147653e+00 
       3.178074789075e-02       3.550744950292e+00 
       3.192718396829e-02       3.535645474768e+00 
       3.207415519325e-02       3.520549025315e+00 
       3.222167613596e-02       3.505454009888e+00 
       3.236976185693e-02       3.490362495039e+00 
       3.251842792776e-02       3.475275701996e+00 
       3.266769045326e-02       3.460193292330e+00 
       3.281756609471e-02       3.445117974741e+00 
       3.296807209441e-02       3.430047975399e+00 
       3.311922630162e-02       3.414985990146e+00 
       3.327104719986e-02       3.399929009001e+00 
       3.342355393590e-02       3.384881599330e+00 
       3.357676635028e-02       3.369843847941e+00 
       3.373070500968e-02       3.354812501615e+00 
       3.388539124115e-02       3.339792085720e+00 
       3.404084716837e-02       3.324780408205e+00 
       3.419709575014e-02       3.309781114132e+00 
       3.435416082110e-02       3.294791309144e+00 
       3.451206713503e-02       3.279813586888e+00 
       3.467084041087e-02       3.264846700570e+00 
       3.483050738153e-02       3.249889380108e+00 
       3.499109584590e-02       3.234944333246e+00 
       3.515263472420e-02       3.220013021169e+00 
       3.531515411689e-02       3.205092523733e+00 
       3.547868536756e-02       3.190184577839e+00 
       3.564326112997e-02       3.175286881974e+00 
       3.580891543965e-02       3.160402390509e+00 
       3.597568379052e-02       3.145531251846e+00 
       3.614360321665e-02       3.130670840474e+00 
       3.631271238004e-02       3.115821172831e+00 
       3.648305166451e-02       3.100984607397e+00 
       3.665466327647e-02       3.086158964684e+00 
       3.682759135313e-02       3.071345130613e+00 
       3.700188207881e-02       3.056541898205e+00 
       3.717758380999e-02       3.041749480779e+00 
       3.735474721006e-02       3.026965568092e+00 
       3.753342539455e-02       3.012193530587e+00 
       3.771367408789e-02       2.997427634047e+00 
       3.789555179276e-02       2.982671546832e+00 
       3.807911997330e-02       2.967924003488e+00 
       3.826444325354e-02       2.953184536054e+00 
       3.845158963247e-02       2.938450518668e+00 
       3.864063071772e-02       2.923720056080e+00 
       3.883164197941e-02       2.908997959322e+00 
       3.902470302655e-02       2.894276672816e+00 
       3.921989790844e-02       2.879560286516e+00 
       3.941731544346e-02       2.864843683946e+00 
       3.961704957874e-02       2.850127713686e+00 
       3.981919978381e-02       2.835411338251e+00 
       4.002387148228e-02       2.820693600617e+00 
       4.023117652610e-02       2.805971263573e+00 
       4.044123371715e-02       2.791243637804e+00 
       4.065416938230e-02       2.776508835183e+00 
       4.087011800809e-02       2.761766873503e+00 
       4.108922294299e-02       2.747014552177e+00 
       4.131163717544e-02       2.732248072499e+00 
       4.153752419801e-02       2.717466333199e+00 
       4.176705896879e-02       2.702669687812e+00 
       4.200042898355e-02       2.687851010559e+00 
       4.223783547389e-02       2.673009547768e+00 
       4.247949474925e-02       2.658146672587e+00 
       4.272563970381e-02       2.643253540026e+00 
       4.297652151252e-02       2.628327029119e+00 
       4.323241154501e-02       2.613366860398e+00 
       4.349360353122e-02       2.598369577068e+00 
       4.376041601845e-02       2.583327481387e+00 
       4.403319516735e-02       2.568238283254e+00 
       4.431231794305e-02       2.553097466000e+00 
       4.459819576870e-02       2.537899151286e+00 
       4.489127872208e-02       2.522642167208e+00 
       4.519206037239e-02       2.507312448100e+00 
       4.550108337449e-02       2.491904680953e+00 
       4.581894596305e-02       2.476418879341e+00 
       4.614630952020e-02       2.460840620105e+00 
       4.648390742907e-02       2.445160095274e+00 
       4.683255547441e-02       2.429372113341e+00 
       4.719316411280e-02       2.413469795211e+00 
       4.756675301229e-02       2.397436939339e+00 
       4.795446835950e-02       2.381263039101e+00 
       4.835760355679e-02       2.364944086648e+00 
       4.877762409092e-02       2.348423389778e+00 
       4.921619755703e-02       2.331693272907e+00 
       4.967523007969e-02       2.314745052036e+00 
       5.015691069999e-02       2.297539313623e+00 
       5.066376571099e-02       2.280055656632e+00 
       5.119872543759e-02       2.262246249204e+00 
       5.176520658204e-02       2.244071454481e+00 
       5.236721398511e-02       2.225474710098e+00 
       5.300946643626e-02       2.206381342726e+00 
       5.369755186298e-02       2.186708194542e+00 
       5.443811750858e-02       2.166343610433e+00 
       5.523909986108e-02       2.145143318078e+00 
       5.610999569786e-02       2.122922744030e+00 
       5.706216693470e-02       2.099433347810e+00 
       5.810915311482e-02       2.074343266068e+00 
