# Matter power spectrum P(k) at redshift z=99
# for k=1.00899e-05 to 203.102 h/Mpc,
# number of wavenumbers equal to 845
#    1:k (h/Mpc)              2:P (Mpc/h)^3        
       1.008985923246e-05       8.603080173196e-03 
       2.251775554681e-05       1.859291589776e-02 
       3.498636120247e-05       2.838341192434e-02 
       4.752690064658e-05       3.808739737428e-02 
       6.017107953230e-05       4.776706309438e-02 
       7.295134796122e-05       5.746776671918e-02 
       8.590117158737e-05       6.722746282073e-02 
       9.905531395762e-05       7.708052497357e-02 
       1.124501334903e-04       8.705967757608e-02 
       1.261238985241e-04       9.719713506170e-02 
       1.401171238832e-04       1.075253759569e-01 
       1.544729323814e-04       1.180777234353e-01 
       1.692374445844e-04       1.288888307733e-01 
       1.844601999316e-04       1.399951106931e-01 
       2.001946119095e-04       1.514351428031e-01 
       2.164984592990e-04       1.632500705854e-01 
       2.334344144703e-04       1.754840002809e-01 
       2.510706081373e-04       1.881844064584e-01 
       2.694812277303e-04       2.014025369547e-01 
       2.887471433953e-04       2.151938344414e-01 
       3.089565513139e-04       2.296183455118e-01 
       3.302056182976e-04       2.447411152216e-01 
       3.525991041420e-04       2.606325622762e-01 
       3.762509287930e-04       2.773687853180e-01 
       4.012846398372e-04       2.950317960412e-01 
       4.278337222871e-04       3.137096211082e-01 
       4.560416775835e-04       3.334962225258e-01 
       4.860617833145e-04       3.544911896269e-01 
       5.180564313506e-04       3.767991117311e-01 
       5.521959330389e-04       4.005285793722e-01 
       5.886566801031e-04       4.257907315695e-01 
       6.276185643138e-04       4.526972828585e-01 
       6.692615934693e-04       4.813580153022e-01 
       7.137617003222e-04       5.118777386460e-01 
       7.612858261435e-04       5.443527783565e-01 
       8.119864671932e-04       5.788671509874e-01 
       8.659959882004e-04       6.154886643287e-01 
       9.234211115548e-04       6.542651932856e-01 
       9.843380583382e-04       6.952215123003e-01 
       1.048788822492e-03       7.383569738960e-01 
       1.116778986862e-03       7.836443239215e-01 
       1.188277341593e-03       8.310298183150e-01 
       1.263217364035e-03       8.804344324907e-01 
       1.341500403710e-03       9.317501311121e-01 
       1.423000229794e-03       9.848626516155e-01 
       1.507568477172e-03       1.039636576533e+00 
       1.595040487037e-03       1.095925807599e+00 
       1.685241074673e-03       1.153577732687e+00 
       1.777989849548e-03       1.212437017897e+00 
       1.873105833077e-03       1.272348884343e+00 
       1.970411240942e-03       1.333161829100e+00 
       2.069734400901e-03       1.394729546006e+00 
       2.170911853969e-03       1.456912524005e+00 
       2.273789735124e-03       1.519578889109e+00 
       2.378224553043e-03       1.582604997356e+00 
       2.484083492891e-03       1.645875701673e+00 
       2.591244358339e-03       1.709284055849e+00 
       2.699595254278e-03       1.772731528603e+00 
       2.809034094327e-03       1.836127183325e+00 
       2.919467999818e-03       1.899387679629e+00 
       3.030812641170e-03       1.962436536017e+00 
       3.142991559080e-03       2.025203872488e+00 
       3.255935491967e-03       2.087625783628e+00 
       3.369581727509e-03       2.149644046058e+00 
       3.483873489548e-03       2.211205512663e+00 
       3.598759366763e-03       2.272262391355e+00 
       3.714192786088e-03       2.332770350484e+00 
       3.830131531369e-03       2.392690119743e+00 
       3.946537306183e-03       2.451985494170e+00 
       4.063375338686e-03       2.510624720487e+00 
       4.180614025754e-03       2.568577990944e+00 
       4.298224613405e-03       2.625820050885e+00 
       4.416180910359e-03       2.682327594170e+00 
       4.534459031676e-03       2.738079339749e+00 
       4.653037169509e-03       2.793058492410e+00 
       4.771895388214e-03       2.847248007278e+00 
       4.891015441268e-03       2.900635101907e+00 
       5.010380607654e-03       2.953207766425e+00 
       5.129975545600e-03       3.004955500654e+00 
       5.249786161774e-03       3.055871183360e+00 
       5.369799494223e-03       3.105947449663e+00 
       5.490003607536e-03       3.155180464947e+00 
       5.610387498875e-03       3.203565969011e+00 
       5.730941013670e-03       3.251101404894e+00 
       5.851654769906e-03       3.297785852305e+00 
       5.972520090067e-03       3.343619997536e+00 
       6.093528939880e-03       3.388604217570e+00 
       6.214673873133e-03       3.432740477103e+00 
       6.335947981902e-03       3.476032215628e+00 
       6.457344851613e-03       3.518482156259e+00 
       6.578858520406e-03       3.560096192539e+00 
       6.700483442374e-03       3.600878816529e+00 
       6.822214454238e-03       3.640835061344e+00 
       6.944046745134e-03       3.679970931457e+00 
       7.065975829162e-03       3.718295029045e+00 
       7.187997520434e-03       3.755811574305e+00 
       7.310107910369e-03       3.792531494451e+00 
       7.432303346994e-03       3.828461703938e+00 
       7.554580416072e-03       3.863609949000e+00 
       7.676935923868e-03       3.897982984115e+00 
       7.799366881390e-03       3.931591753243e+00 
       7.921870489981e-03       3.964444433536e+00 
       8.044444128110e-03       3.996550116279e+00 
       8.167085339271e-03       4.027916322623e+00 
       8.289791820870e-03       4.058555924875e+00 
       8.412561414027e-03       4.088475207923e+00 
       8.535392094189e-03       4.117683067708e+00 
       8.658281962499e-03       4.146189641531e+00 
       8.781229237845e-03       4.174004244081e+00 
       8.904232249532e-03       4.201135962396e+00 
       9.027289430517e-03       4.227593837666e+00 
       9.150399311169e-03       4.253386312910e+00 
       9.273560513504e-03       4.278523011682e+00 
       9.396771745844e-03       4.303012539049e+00 
       9.520031797890e-03       4.326863176150e+00 
       9.643339536152e-03       4.350084687887e+00 
       9.766693899710e-03       4.372683251357e+00 
       9.890093896300e-03       4.394670611336e+00 
       1.001353859866e-02       4.416051985383e+00 
       1.013702714118e-02       4.436835997613e+00 
       1.026055871672e-02       4.457031080662e+00 
       1.038413257374e-02       4.476644993651e+00 
       1.050774801356e-02       4.495687264035e+00 
       1.063140438788e-02       4.514159718291e+00 
       1.075510109639e-02       4.532077385786e+00 
       1.087883758462e-02       4.549441149372e+00 
       1.100261334193e-02       4.566260591339e+00 
       1.112642789957e-02       4.582542780927e+00 
       1.125028082899e-02       4.598294380927e+00 
       1.137417174014e-02       4.613521444461e+00 
       1.149810028000e-02       4.628232247718e+00 
       1.162206613114e-02       4.642430023663e+00 
       1.174606901039e-02       4.656124275502e+00 
       1.187010866765e-02       4.669320015973e+00 
       1.199418488471e-02       4.682023563761e+00 
       1.211829747421e-02       4.694240589125e+00 
       1.224244627862e-02       4.705978177644e+00 
       1.236663116941e-02       4.717241018346e+00 
       1.249085204607e-02       4.728034836049e+00 
       1.261510883545e-02       4.738366746047e+00 
       1.273940149094e-02       4.748239637916e+00 
       1.286372999182e-02       4.757663497230e+00 
       1.298809434267e-02       4.766640230981e+00 
       1.311249457272e-02       4.775175451321e+00 
       1.323693073542e-02       4.783275340181e+00 
       1.336140290784e-02       4.790946075867e+00 
       1.348591119034e-02       4.798193345890e+00 
       1.361045570605e-02       4.805020774087e+00 
       1.373503660061e-02       4.811434248823e+00 
       1.385965404174e-02       4.817439575332e+00 
       1.398430821900e-02       4.823040843740e+00 
       1.410899934352e-02       4.828244567139e+00 
       1.423372764771e-02       4.833052885758e+00 
       1.435849338511e-02       4.837475555562e+00 
       1.448329683018e-02       4.841513121679e+00 
       1.460813827812e-02       4.845172058465e+00 
       1.473301804481e-02       4.848460048065e+00 
       1.485793646664e-02       4.851378644538e+00 
       1.498289390044e-02       4.853931545218e+00 
       1.510789072347e-02       4.856129465329e+00 
       1.523292733332e-02       4.857971648073e+00 
       1.535800414793e-02       4.859464225598e+00 
       1.548312160558e-02       4.860615690611e+00 
       1.560828016494e-02       4.861428177420e+00 
       1.573348030509e-02       4.861901657885e+00 
       1.585872252561e-02       4.862046385971e+00 
       1.598400734663e-02       4.861867320502e+00 
       1.610933530896e-02       4.861365142091e+00 
       1.623470697422e-02       4.860550258997e+00 
       1.636012292492e-02       4.859424194865e+00 
       1.648558376469e-02       4.857988791657e+00 
       1.661109011841e-02       4.856252239675e+00 
       1.673664263240e-02       4.854216456130e+00 
       1.686224197463e-02       4.851889480404e+00 
       1.698788883495e-02       4.849273692225e+00 
       1.711358392534e-02       4.846369527871e+00 
       1.723932798012e-02       4.843188191122e+00 
       1.736512175629e-02       4.839728875777e+00 
       1.749096603375e-02       4.835997959768e+00 
       1.761686161566e-02       4.831996844864e+00 
       1.774280932873e-02       4.827740379232e+00 
       1.786881002356e-02       4.823215765986e+00 
       1.799486457501e-02       4.818441677537e+00 
       1.812097388257e-02       4.813415230880e+00 
       1.824713887072e-02       4.808138491010e+00 
       1.837336048938e-02       4.802620977689e+00 
       1.849963971429e-02       4.796865528630e+00 
       1.862597754748e-02       4.790870281638e+00 
       1.875237501771e-02       4.784646155649e+00 
       1.887883318094e-02       4.778193333860e+00 
       1.900535312085e-02       4.771520523264e+00 
       1.913193594933e-02       4.764623897351e+00 
       1.925858280700e-02       4.757513384445e+00 
       1.938529486380e-02       4.750186118460e+00 
       1.951207331950e-02       4.742653230127e+00 
       1.963891940434e-02       4.734912022419e+00 
       1.976583437961e-02       4.726977783520e+00 
       1.989281953829e-02       4.718833931383e+00 
       2.001987620571e-02       4.710499711738e+00 
       2.014700574018e-02       4.701978012693e+00 
       2.027420953374e-02       4.693264009476e+00 
       2.040148901283e-02       4.684367271537e+00 
       2.052884563906e-02       4.675288990122e+00 
       2.065628090997e-02       4.666035217274e+00 
       2.078379635978e-02       4.656608675032e+00 
       2.091139356027e-02       4.647010075999e+00 
       2.103907412157e-02       4.637236693487e+00 
       2.116683969302e-02       4.627310220203e+00 
       2.129469196411e-02       4.617211945826e+00 
       2.142263266535e-02       4.606955458047e+00 
       2.155066356926e-02       4.596555964936e+00 
       2.167878649131e-02       4.586006546061e+00 
       2.180700329099e-02       4.575293640737e+00 
       2.193531587278e-02       4.564444844166e+00 
       2.206372618728e-02       4.553449064752e+00 
       2.219223623229e-02       4.542316443839e+00 
       2.232084805397e-02       4.531052557894e+00 
       2.244956374803e-02       4.519650507943e+00 
       2.257838546090e-02       4.508114368101e+00 
       2.270731539105e-02       4.496458740593e+00 
       2.283635579024e-02       4.484674273072e+00 
       2.296550896486e-02       4.472758386666e+00 
       2.309477727734e-02       4.460743713748e+00 
       2.322416314755e-02       4.448603834780e+00 
       2.335366905427e-02       4.436351413699e+00 
       2.348329753672e-02       4.423986558411e+00 
       2.361305119610e-02       4.411510955643e+00 
       2.374293269725e-02       4.398932166183e+00 
       2.387294477028e-02       4.386257137889e+00 
       2.400309021230e-02       4.373473201780e+00 
       2.413337188923e-02       4.360602120475e+00 
       2.426379273761e-02       4.347633817095e+00 
       2.439435576650e-02       4.334563527027e+00 
       2.452506405949e-02       4.321413464221e+00 
       2.465592077667e-02       4.308170234185e+00 
       2.478692915676e-02       4.294853975987e+00 
       2.491809251927e-02       4.281441301340e+00 
       2.504941426679e-02       4.267948575440e+00 
       2.518089788722e-02       4.254389435161e+00 
       2.531254695627e-02       4.240751368623e+00 
       2.544436513988e-02       4.227043318728e+00 
       2.557635619681e-02       4.213250496810e+00 
       2.570852398133e-02       4.199407248256e+00 
       2.584087244594e-02       4.185495258697e+00 
       2.597340564424e-02       4.171503877639e+00 
       2.610612773389e-02       4.157466557357e+00 
       2.623904297966e-02       4.143364799531e+00 
       2.637215575665e-02       4.129201949315e+00 
       2.650547055353e-02       4.114992071875e+00 
       2.663899197597e-02       4.100714270133e+00 
       2.677272475021e-02       4.086399144832e+00 
       2.690667372668e-02       4.072030910826e+00 
       2.704084388387e-02       4.057607422797e+00 
       2.717524033223e-02       4.043143497767e+00 
       2.730986831833e-02       4.028645109864e+00 
       2.744473322907e-02       4.014097196849e+00 
       2.757984059617e-02       3.999507933234e+00 
       2.771519610072e-02       3.984872304358e+00 
       2.785080557800e-02       3.970218303430e+00 
       2.798667502244e-02       3.955507774432e+00 
       2.812281059279e-02       3.940783111393e+00 
       2.825921861753e-02       3.926009653076e+00 
       2.839590560043e-02       3.911224482891e+00 
       2.853287822642e-02       3.896401109774e+00 
       2.867014336763e-02       3.881545987807e+00 
       2.880770808975e-02       3.866672568176e+00 
       2.894557965859e-02       3.851771894196e+00 
       2.908376554696e-02       3.836860949203e+00 
       2.922227344183e-02       3.821919082176e+00 
       2.936111125182e-02       3.806958774200e+00 
       2.950028711498e-02       3.791983824853e+00 
       2.963980940692e-02       3.776984718706e+00 
       2.977968674934e-02       3.761970559192e+00 
       2.991992801888e-02       3.746946740598e+00 
       3.006054235642e-02       3.731913628824e+00 
       3.020153917674e-02       3.716862399790e+00 
       3.034292817872e-02       3.701806282987e+00 
       3.048471935591e-02       3.686738800254e+00 
       3.062692300766e-02       3.671657375905e+00 
       3.076954975073e-02       3.656576814104e+00 
       3.091261053153e-02       3.641495494721e+00 
       3.105611663883e-02       3.626399337959e+00 
       3.120007971717e-02       3.611309485611e+00 
       3.134451178094e-02       3.596197072248e+00 
       3.148942522908e-02       3.581100203523e+00 
       3.163483286058e-02       3.566001600758e+00 
       3.178074789075e-02       3.550906347587e+00 
       3.192718396829e-02       3.535798389185e+00 
       3.207415519325e-02       3.520701505847e+00 
       3.222167613596e-02       3.505610240773e+00 
       3.236976185693e-02       3.490510688403e+00 
       3.251842792776e-02       3.475437881595e+00 
       3.266769045326e-02       3.460332790821e+00 
       3.281756609471e-02       3.445276654068e+00 
       3.296807209441e-02       3.430201481974e+00 
       3.311922630162e-02       3.415124881094e+00 
       3.327104719986e-02       3.400078607403e+00 
       3.342355393590e-02       3.385034203292e+00 
       3.357676635028e-02       3.369979523891e+00 
       3.373070500968e-02       3.354960386484e+00 
       3.388539124115e-02       3.339940746325e+00 
       3.404084716837e-02       3.324928548934e+00 
       3.419709575014e-02       3.309926143355e+00 
       3.435416082110e-02       3.294943301652e+00 
       3.451206713503e-02       3.279968894238e+00 
       3.467084041087e-02       3.264997551851e+00 
       3.483050738153e-02       3.250027989933e+00 
       3.499109584590e-02       3.235076743869e+00 
       3.515263472420e-02       3.220158772980e+00 
       3.531515411689e-02       3.205233937685e+00 
       3.547868536756e-02       3.190324804857e+00 
       3.564326112997e-02       3.175431445184e+00 
       3.580891543965e-02       3.160541780960e+00 
       3.597568379052e-02       3.145665445911e+00 
       3.614360321665e-02       3.130812523250e+00 
       3.631271238004e-02       3.115955669094e+00 
       3.648305166451e-02       3.101111280900e+00 
       3.665466327647e-02       3.086292858499e+00 
       3.682759135313e-02       3.071483564037e+00 
       3.700188207881e-02       3.056678301566e+00 
       3.717758380999e-02       3.041887634014e+00 
       3.735474721006e-02       3.027104499724e+00 
       3.753342539455e-02       3.012316932522e+00 
       3.771367408789e-02       2.997553204410e+00 
       3.789555179276e-02       2.982804393116e+00 
       3.807911997330e-02       2.968053796989e+00 
       3.826444325354e-02       2.953314767096e+00 
       3.845158963247e-02       2.938580969346e+00 
       3.864063071772e-02       2.923854324258e+00 
       3.883164197941e-02       2.909126333838e+00 
       3.902470302655e-02       2.894406552792e+00 
       3.921989790844e-02       2.879688659989e+00 
       3.941731544346e-02       2.864970060106e+00 
       3.961704957874e-02       2.850251417635e+00 
       3.981919978381e-02       2.835536669629e+00 
       4.002387148228e-02       2.820819163281e+00 
       4.023117652610e-02       2.806097618253e+00 
       4.044123371715e-02       2.791366011331e+00 
       4.065416938230e-02       2.776632216483e+00 
       4.087011800809e-02       2.761886634102e+00 
       4.108922294299e-02       2.747135635969e+00 
       4.131163717544e-02       2.732363790168e+00 
       4.153752419801e-02       2.717582260572e+00 
       4.176705896879e-02       2.702788229350e+00 
       4.200042898355e-02       2.687969196540e+00 
       4.223783547389e-02       2.673129828147e+00 
       4.247949474925e-02       2.658264735397e+00 
       4.272563970381e-02       2.643370193732e+00 
       4.297652151252e-02       2.628446725060e+00 
       4.323241154501e-02       2.613478448471e+00 
       4.349360353122e-02       2.598485050905e+00 
       4.376041601845e-02       2.583440216556e+00 
       4.403319516735e-02       2.568352784212e+00 
       4.431231794305e-02       2.553212862181e+00 
       4.459819576870e-02       2.538014616622e+00 
       4.489127872208e-02       2.522753327093e+00 
       4.519206037239e-02       2.507417797348e+00 
       4.550108337449e-02       2.492016959177e+00 
       4.581894596305e-02       2.476537335176e+00 
       4.614630952020e-02       2.460956679391e+00 
       4.648390742907e-02       2.445265410487e+00 
       4.683255547441e-02       2.429481101125e+00 
       4.719316411280e-02       2.413570755386e+00 
       4.756675301229e-02       2.397533084341e+00 
       4.795446835950e-02       2.381363260339e+00 
       4.835760355679e-02       2.365043234288e+00 
       4.877762409092e-02       2.348528652539e+00 
       4.921619755703e-02       2.331814185369e+00 
       4.967523007969e-02       2.314862520645e+00 
       5.015691069999e-02       2.297668520293e+00 
       5.066376571099e-02       2.280194122436e+00 
       5.119872543759e-02       2.262385109716e+00 
       5.176520658204e-02       2.244223227232e+00 
       5.236721398511e-02       2.225636350953e+00 
       5.300946643626e-02       2.206551936654e+00 
       5.369755186298e-02       2.186883489440e+00 
       5.443811750858e-02       2.166526645220e+00 
       5.523909986108e-02       2.145335569798e+00 
       5.610999569786e-02       2.123124233766e+00 
       5.706216693470e-02       2.099636556339e+00 
       5.810915311482e-02       2.074556962757e+00 
