# total lensed [l(l+1)/2pi] C_l's (units: [microK]^2)
# for l=2 to 2500, i.e. number of multipoles equal to 2499
#
# -> if you don't want to see such a header, set 'headers' to 'no' in input file
# -> for CMB lensing (d), these are C_l^dd for the deflection field.
#    Remember the conversion factors:
#    C_l^dd (deflection) = l(l+1) C_l^phi-phi
#    C_l^gg (shear/convergence) = 1/4 (l(l+1))^2 C_l^phi-phi
#
# 1:l     2:TT                     3:EE                     4:BB                     5:TE                     6:dd                     7:dT                     8:dE                 
    2       1.124786037084e+03       3.562285695048e-02       1.696177432115e-06       2.824168454863e+00       5.060387314977e-08       3.396360566868e-03      -1.343676660995e-05 
    3       1.053188034416e+03       4.499757810358e-02       3.393075989460e-06       3.182158051811e+00       6.187608297131e-08       3.377354064146e-03      -1.428016394116e-05 
    4       9.888052101266e+02       3.828484302395e-02       5.656715190108e-06       2.972183296397e+00       7.139486831712e-08       3.284110001287e-03      -1.191290959712e-05 
    5       9.409665221213e+02       2.509669898033e-02       8.488018064522e-06       2.522059197062e+00       7.966848287802e-08       3.164717201893e-03      -7.936295938524e-06 
    6       9.078965456128e+02       1.382477104741e-02       1.188810617370e-05       2.020414717194e+00       8.688438583162e-08       3.037050237286e-03      -3.669515322072e-06 
    7       8.859835351950e+02       7.448551570303e-03       1.585827949558e-05       1.576127218985e+00       9.322416452867e-08       2.909892797678e-03      -1.106936806072e-07 
    8       8.725495944949e+02       4.858248566271e-03       2.039999359903e-05       1.236244201087e+00       9.883266814866e-08       2.788075216661e-03       2.167681289866e-06 
    9       8.653761014147e+02       3.914118570907e-03       2.551483474565e-05       1.010234705910e+00       1.038302281891e-07       2.674212031324e-03       3.026617165626e-06 
   10       8.626181878702e+02       3.310574674393e-03       3.120449360757e-05       8.861756989106e-01       1.083004249896e-07       2.568778557085e-03       2.688737202769e-06 
   11       8.635591856865e+02       2.766849632645e-03       3.747073831523e-05       8.414731150362e-01       1.113567758694e-07       2.495213252268e-03       1.615932341423e-06 
   12       8.671307047098e+02       2.419621872026e-03       4.431538755065e-05       8.509121655033e-01       1.149783056992e-07       2.397469232520e-03       2.935008441472e-07 
   13       8.728008633678e+02       2.333387446999e-03       5.174028437996e-05       8.922808377323e-01       1.182179005854e-07       2.312099776275e-03      -8.295285850430e-07 
   14       8.800317338157e+02       2.425372753369e-03       5.974727147522e-05       9.490477323070e-01       1.211186296039e-07       2.223358104276e-03      -1.508232111683e-06 
   15       8.888030328714e+02       2.606130457543e-03       6.833816831030e-05       1.010950428172e+00       1.237166336659e-07       2.143094106263e-03      -1.659572578335e-06 
   16       8.986927704891e+02       2.870731960391e-03       7.751475083317e-05       1.073628252073e+00       1.260427764268e-07       2.068132242274e-03      -1.384273517800e-06 
   17       9.095962424746e+02       3.268315239229e-03       8.727873401881e-05       1.136399656533e+00       1.281238064889e-07       1.996952633713e-03      -8.834063917472e-07 
   18       9.211702752446e+02       3.835596074018e-03       9.763175635646e-05       1.200833684437e+00       1.299341042152e-07       1.928630522931e-03      -3.898068104030e-07 
   19       9.335036352936e+02       4.571096097601e-03       1.085753751382e-04       1.268663874956e+00       1.316399491277e-07       1.865206908338e-03      -4.777158584354e-08 
   20       9.464322200764e+02       5.456261569808e-03       1.201110452763e-04       1.341242279895e+00       1.331052949862e-07       1.805401028235e-03       3.471960999228e-08 
   21       9.599993358650e+02       6.486221796391e-03       1.322401338942e-04       1.418157537428e+00       1.344181562481e-07       1.749247491828e-03      -1.283217763008e-07 
   22       9.740694685363e+02       7.657985196751e-03       1.449638980674e-04       1.497727422244e+00       1.355510262994e-07       1.694626496743e-03      -4.372716975274e-07 
   23       9.886456557254e+02       8.971135582353e-03       1.582835127637e-04       1.576986001352e+00       1.365785471376e-07       1.642128753738e-03      -7.878146462060e-07 
   24       1.003606761894e+03       1.042520557842e-02       1.722000447862e-04       1.652232574255e+00       1.374558203490e-07       1.591736683498e-03      -1.057403749111e-06 
   25       1.018941855368e+03       1.202326452502e-02       1.867144847375e-04       1.721150492745e+00       1.382176292719e-07       1.544125650601e-03      -1.190640769840e-06 
   26       1.034572045572e+03       1.377071407404e-02       2.018277294916e-04       1.781973413524e+00       1.388210235125e-07       1.499079172706e-03      -1.166750960174e-06 
   27       1.050568831500e+03       1.568072182653e-02       2.175406485117e-04       1.834314227686e+00       1.393611247417e-07       1.457094353622e-03      -1.016945249997e-06 
   28       1.066924246349e+03       1.777065051916e-02       2.338540255845e-04       1.878431972561e+00       1.398651191170e-07       1.417504784752e-03      -8.160653342760e-07 
   29       1.083523614869e+03       2.005814083975e-02       2.507685608618e-04       1.914840985444e+00       1.402260357858e-07       1.378399320568e-03      -6.588435335746e-07 
   30       1.100422618402e+03       2.255232504134e-02       2.682849733828e-04       1.943991198742e+00       1.404986142791e-07       1.340407407931e-03      -5.762596615307e-07 
   31       1.117651976267e+03       2.525907425283e-02       2.864039328723e-04       1.966497394184e+00       1.407208165292e-07       1.304503937295e-03      -5.763421327182e-07 
   32       1.135166303181e+03       2.818358899630e-02       3.051260528620e-04       1.982866789487e+00       1.408480396049e-07       1.271016277007e-03      -6.577376572135e-07 
   33       1.152962330284e+03       3.133202427286e-02       3.244519680632e-04       1.992194507042e+00       1.409197004977e-07       1.239942449139e-03      -7.908610231681e-07 
   34       1.170985194375e+03       3.471034529399e-02       3.443822837735e-04       1.992967668375e+00       1.409444389278e-07       1.210485530939e-03      -9.236618005719e-07 
   35       1.189139126117e+03       3.832425243309e-02       3.649175681344e-04       1.983644579874e+00       1.408724716239e-07       1.181323740247e-03      -9.987000636263e-07 
   36       1.207466055597e+03       4.218057557436e-02       3.860583961835e-04       1.963562873583e+00       1.407498352614e-07       1.152608272229e-03      -1.010083335787e-06 
   37       1.226017057076e+03       4.628631084185e-02       4.078053217625e-04       1.932334775664e+00       1.406208643821e-07       1.124727501813e-03      -9.730927840173e-07 
   38       1.244798304342e+03       5.064822923634e-02       4.301588669261e-04       1.889609365088e+00       1.404701925673e-07       1.097725818256e-03      -9.117473754948e-07 
   39       1.263786832661e+03       5.527259771439e-02       4.531195174787e-04       1.835158942132e+00       1.402401691973e-07       1.071424735982e-03      -8.539437405738e-07 
   40       1.282997128534e+03       6.016426999156e-02       4.766877057013e-04       1.769168231133e+00       1.399572521066e-07       1.046067858996e-03      -8.104286858382e-07 
   41       1.302428409284e+03       6.532725681771e-02       5.008638231467e-04       1.692047462178e+00       1.396522392871e-07       1.021865845045e-03      -7.874392779465e-07 
   42       1.322041912672e+03       7.076492412127e-02       5.256482258729e-04       1.604365211314e+00       1.393168265124e-07       9.987760373868e-04      -7.920504892871e-07 
   43       1.341786468292e+03       7.648050474847e-02       5.510412092015e-04       1.506604828748e+00       1.389175907009e-07       9.765973767226e-04      -8.298540527684e-07 
   44       1.361693512990e+03       8.247891314098e-02       5.770429215532e-04       1.398322484999e+00       1.384827635717e-07       9.554358669043e-04      -8.965540635499e-07 
   45       1.381805459199e+03       8.876543330986e-02       6.036534244839e-04       1.278741173944e+00       1.380458964222e-07       9.353675557207e-04      -9.825860204410e-07 
   46       1.402147202747e+03       9.534521621066e-02       6.308727148736e-04       1.146972993688e+00       1.376167611588e-07       9.162813411686e-04      -1.074759235433e-06 
   47       1.422724275627e+03       1.022232770427e-01       6.587007237401e-04       1.002011834328e+00       1.371737310219e-07       8.978465337702e-04      -1.155819593532e-06 
   48       1.443529568400e+03       1.094038912252e-01       6.871372925893e-04       8.429428440576e-01       1.366775899207e-07       8.796475735006e-04      -1.209227407817e-06 
   49       1.464570048412e+03       1.168885872862e-01       7.161820973523e-04       6.696577114111e-01       1.361442148354e-07       8.617400801476e-04      -1.237029571293e-06 
   50       1.485844399363e+03       1.246775835536e-01       7.458347009683e-04       4.823284490827e-01       1.355970691336e-07       8.442678201422e-04      -1.248654909833e-06 
   51       1.507333733950e+03       1.327703075213e-01       7.760945717010e-04       2.812118753262e-01       1.350444113015e-07       8.273014946790e-04      -1.256619223924e-06 
   52       1.529000183854e+03       1.411653624687e-01       8.069610808058e-04       6.665336183850e-02       1.344749135338e-07       8.108257047844e-04      -1.276857143609e-06 
   53       1.550803871003e+03       1.498613114660e-01       8.384335267875e-04      -1.610365017665e-01       1.338672891182e-07       7.947825467292e-04      -1.324620109268e-06 
   54       1.572762190385e+03       1.588593429067e-01       8.705112208674e-04      -4.019977751046e-01       1.332372702936e-07       7.792552990905e-04      -1.399460479902e-06 
   55       1.594903313955e+03       1.681612322204e-01       9.031934194278e-04      -6.565057051144e-01       1.326056923002e-07       7.643307190982e-04      -1.495131606265e-06 
   56       1.617248518793e+03       1.777685853547e-01       9.364792981556e-04      -9.248545479874e-01       1.319836869313e-07       7.500397910580e-04      -1.603359774260e-06 
   57       1.639811547813e+03       1.876828396661e-01       9.703679508244e-04      -1.207359149729e+00       1.313700533913e-07       7.363491871760e-04      -1.713641747698e-06 
   58       1.662597970454e+03       1.979052648123e-01       1.004858388077e-03      -1.504356526719e+00       1.307483792977e-07       7.231523480807e-04      -1.813034786407e-06 
   59       1.685609063672e+03       2.084359333696e-01       1.039949623077e-03      -1.816111617496e+00       1.300957284405e-07       7.103160328685e-04      -1.889189198775e-06 
   60       1.708855959347e+03       2.192703515087e-01       1.075640954469e-03      -2.142505389515e+00       1.294212345332e-07       6.978610985290e-04      -1.941206687111e-06 
   61       1.732347658286e+03       2.304020460468e-01       1.111931747090e-03      -2.483276966190e+00       1.287394752549e-07       6.858275815181e-04      -1.972141949860e-06 
   62       1.756086322665e+03       2.418234925847e-01       1.148821352576e-03      -2.838111453348e+00       1.280587595814e-07       6.742197231117e-04      -1.986171044373e-06 
   63       1.780066789954e+03       2.535260814738e-01       1.186309111086e-03      -3.206638271363e+00       1.273796025374e-07       6.630012100966e-04      -1.988696528138e-06 
   64       1.804276086847e+03       2.655000837834e-01       1.224394353028e-03      -3.588429487279e+00       1.266930691701e-07       6.520902260773e-04      -1.986456185470e-06 
   65       1.828700317826e+03       2.777359621222e-01       1.263076500824e-03      -3.983088895411e+00       1.259865707830e-07       6.413939628836e-04      -1.985993842485e-06 
   66       1.853348118294e+03       2.902287022139e-01       1.302355395359e-03      -4.390544932976e+00       1.252684892249e-07       6.309369934170e-04      -1.988240043306e-06 
   67       1.878231314191e+03       3.029743405474e-01       1.342231041961e-03      -4.810817000737e+00       1.245505689812e-07       6.207641422512e-04      -1.992424312630e-06 
   68       1.903357711071e+03       3.159687039867e-01       1.382703520906e-03      -5.243931042687e+00       1.238403456442e-07       6.109020812883e-04      -1.997551933350e-06 
   69       1.928730814326e+03       3.292074133561e-01       1.423772991943e-03      -5.689920416586e+00       1.231402051259e-07       6.013569646691e-04      -2.002384436217e-06 
   70       1.954349549386e+03       3.426858870252e-01       1.465439698817e-03      -6.148826764515e+00       1.224463692667e-07       5.921119758983e-04      -2.005419468789e-06 
   71       1.980207981941e+03       3.563993444944e-01       1.507703973799e-03      -6.620700883422e+00       1.217478056425e-07       5.831247871835e-04      -2.004870043692e-06 
   72       2.006299467848e+03       3.703421495897e-01       1.550566267099e-03      -7.105543043569e+00       1.210314658849e-07       5.743468977136e-04      -1.999157405278e-06 
   73       2.032630646827e+03       3.845056861245e-01       1.594027231591e-03      -7.603108746778e+00       1.203031437118e-07       5.657941904595e-04      -1.988604351782e-06 
   74       2.059209641741e+03       3.988800790516e-01       1.638087662604e-03      -8.113067083112e+00       1.195723825894e-07       5.574918168923e-04      -1.974188019366e-06 
   75       2.086041691281e+03       4.134548074274e-01       1.682748479481e-03      -8.635057476168e+00       1.188462588817e-07       5.494526528964e-04      -1.957079999255e-06 
   76       2.113128971310e+03       4.282186929190e-01       1.728010730671e-03      -9.168689171155e+00       1.181288565810e-07       5.416759067981e-04      -1.938659648493e-06 
   77       2.140470416210e+03       4.431598883128e-01       1.773875598827e-03      -9.713540722973e+00       1.174207043229e-07       5.341456811146e-04      -1.920527751657e-06 
   78       2.168061540231e+03       4.582658660217e-01       1.820344405894e-03      -1.026915948429e+01       1.167181736576e-07       5.268294880237e-04      -1.904520533533e-06 
   79       2.195894258836e+03       4.735234065934e-01       1.867418618204e-03      -1.083506109362e+01       1.160128375503e-07       5.196767185540e-04      -1.892724022740e-06 
   80       2.223960667086e+03       4.889191712875e-01       1.915099788323e-03      -1.141076856395e+01       1.152953158370e-07       5.126361039057e-04      -1.887006543809e-06 
   81       2.252265523512e+03       5.044415596049e-01       1.963389357749e-03      -1.199593849253e+01       1.145699680993e-07       5.057169543861e-04      -1.887441547980e-06 
   82       2.280815618284e+03       5.200791548794e-01       2.012288829084e-03      -1.259025593752e+01       1.138439845374e-07       4.989409137893e-04      -1.893502749121e-06 
   83       2.309615904986e+03       5.358201681949e-01       2.061799830104e-03      -1.319339698226e+01       1.131230092837e-07       4.923236731483e-04      -1.904499599640e-06 
   84       2.338669395239e+03       5.516524377095e-01       2.111924117680e-03      -1.380502895668e+01       1.124108388516e-07       4.858743187943e-04      -1.919565287034e-06 
   85       2.367977053330e+03       5.675634279795e-01       2.162663581702e-03      -1.442481065872e+01       1.117091009696e-07       4.795946604155e-04      -1.937644415795e-06 
   86       2.397537690832e+03       5.835402292831e-01       2.214020248998e-03      -1.505239257574e+01       1.110169133174e-07       4.734785391152e-04      -1.957480374661e-06 
   87       2.427347861234e+03       5.995695569445e-01       2.265996287261e-03      -1.568741710596e+01       1.103305216809e-07       4.675111154674e-04      -1.977602389228e-06 
   88       2.457401754564e+03       6.156377506580e-01       2.318594008966e-03      -1.632951877988e+01       1.096429170408e-07       4.616681375738e-04      -1.996312259910e-06 
   89       2.487693472703e+03       6.317309155318e-01       2.371815869973e-03      -1.697831318989e+01       1.089467534960e-07       4.559251544813e-04      -2.012047483645e-06 
   90       2.518224494070e+03       6.478353720512e-01       2.425664456525e-03      -1.763336130627e+01       1.082450969067e-07       4.502893426576e-04      -2.024599607918e-06 
   91       2.548997191207e+03       6.639372757826e-01       2.480142503425e-03      -1.829419994544e+01       1.075432601278e-07       4.447737508324e-04      -2.034156396208e-06 
   92       2.580012485595e+03       6.800224833643e-01       2.535252902970e-03      -1.896035261499e+01       1.068456079478e-07       4.393876338538e-04      -2.040952611982e-06 
   93       2.611269777947e+03       6.960765539530e-01       2.590998708788e-03      -1.963132956594e+01       1.061553874737e-07       4.341360886455e-04      -2.045272870615e-06 
   94       2.642766878495e+03       7.120847506715e-01       2.647383139686e-03      -2.030662784496e+01       1.054745485292e-07       4.290196801706e-04      -2.047454554997e-06 
   95       2.674499937285e+03       7.280320420551e-01       2.704409583488e-03      -2.098573134671e+01       1.048035538452e-07       4.240340574043e-04      -2.047890794823e-06 
   96       2.706463374466e+03       7.439031034993e-01       2.762081600881e-03      -2.166811086598e+01       1.041411788180e-07       4.191695593136e-04      -2.047033509583e-06 
   97       2.738649810583e+03       7.596823187068e-01       2.820402929257e-03      -2.235322415007e+01       1.034843006147e-07       4.144108108443e-04      -2.045396515223e-06 
   98       2.771049996864e+03       7.753537811341e-01       2.879377486553e-03      -2.304051595093e+01       1.028276764012e-07       4.097363089173e-04      -2.043558694505e-06 
   99       2.803655041302e+03       7.909016740522e-01       2.939009372917e-03      -2.372942929106e+01       1.021660280463e-07       4.051254840944e-04      -2.042048262238e-06 
  100       2.836463597343e+03       8.063114690221e-01       2.999302867654e-03      -2.441944096867e+01       1.015015073346e-07       4.005825474230e-04      -2.040960170464e-06 
  101       2.869475568655e+03       8.215689006506e-01       3.060262438981e-03      -2.511003120193e+01       1.008378890813e-07       3.961169049091e-04      -2.040263684297e-06 
  102       2.902689862821e+03       8.366596090820e-01       3.121892749940e-03      -2.580067304995e+01       1.001783422554e-07       3.917359379556e-04      -2.039913331753e-06 
  103       2.936104349459e+03       8.515691460345e-01       3.184198662211e-03      -2.649083260088e+01       9.952533283568e-08       3.874448225486e-04      -2.039847892433e-06 
  104       2.969715818343e+03       8.662829808361e-01       3.247185239930e-03      -2.717996916013e+01       9.888052151903e-08       3.832463439226e-04      -2.039989362938e-06 
  105       3.003519937520e+03       8.807865064618e-01       3.310857753501e-03      -2.786753543854e+01       9.824465617864e-08       3.791407067062e-04      -2.040241899013e-06 
  106       3.037511211430e+03       8.950650455689e-01       3.375221683420e-03      -2.855297774056e+01       9.761745896826e-08       3.751253405449e-04      -2.040490734410e-06 
  107       3.071682939021e+03       9.091038565343e-01       3.440282724084e-03      -2.923573615240e+01       9.699750796884e-08       3.711947012054e-04      -2.040601076498e-06 
