# total [l(l+1)/2pi] C_l's (units: [microK]^2)
# for l=2 to 3000, i.e. number of multipoles equal to 2999
#
# -> if you don't want to see such a header, set 'headers' to 'no' in input file
# -> for CMB lensing (d), these are C_l^dd for the deflection field.
#    Remember the conversion factors:
#    C_l^dd (deflection) = l(l+1) C_l^phi-phi
#    C_l^gg (shear/convergence) = 1/4 (l(l+1))^2 C_l^phi-phi
#
# 1:l     2:TT                     3:EE                     4:BB                     5:TE                     6:dd                     7:dT                     8:dE                 
    2       1.124782433370e+03       3.562116077266e-02       0.000000000000e+00       2.824168485072e+00       5.060387314977e-08       3.396360566868e-03      -1.343676660995e-05 
    3       1.053180843868e+03       4.499418502375e-02       0.000000000000e+00       3.182158186526e+00       6.187608297131e-08       3.377354064146e-03      -1.428016394116e-05 
    4       9.887932629461e+02       3.827918628989e-02       0.000000000000e+00       2.972183683822e+00       7.139486831712e-08       3.284110001287e-03      -1.191290959712e-05 
    5       9.409486697860e+02       2.508821089769e-02       0.000000000000e+00       2.522060080602e+00       7.966848287802e-08       3.164717201893e-03      -7.936295938524e-06 
    6       9.078716651751e+02       1.381288276521e-02       0.000000000000e+00       2.020416456719e+00       8.688438583162e-08       3.037050237286e-03      -3.669515322072e-06 
    7       8.859505329497e+02       7.432692881494e-03       0.000000000000e+00       1.576130310520e+00       9.322416452867e-08       2.909892797678e-03      -1.106936806072e-07 
    8       8.725074089429e+02       4.837847727061e-03       0.000000000000e+00       1.236249294693e+00       9.883266814866e-08       2.788075216661e-03       2.167681289866e-06 
    9       8.653237054725e+02       3.888602143005e-03       0.000000000000e+00       1.010242621548e+00       1.038302281891e-07       2.674212031324e-03       3.026617165626e-06 
   10       8.625545902993e+02       3.279367394421e-03       0.000000000000e+00       8.861874401354e-01       1.083004249896e-07       2.568778557085e-03       2.688737202769e-06 
   11       8.634834317452e+02       2.729374313088e-03       0.000000000000e+00       8.414898804315e-01       1.113567758694e-07       2.495213252268e-03       1.615932341423e-06 
   12       8.670418760528e+02       2.375299338002e-03       0.000000000000e+00       8.509353577737e-01       1.149783056992e-07       2.397469232520e-03       2.935008441472e-07 
   13       8.726980772479e+02       2.281636512877e-03       0.000000000000e+00       8.923120704496e-01       1.182179005854e-07       2.312099776275e-03      -8.295285850430e-07 
   14       8.799141416598e+02       2.365610242805e-03       0.000000000000e+00       9.490888343270e-01       1.211186296039e-07       2.223358104276e-03      -1.508232111683e-06 
   15       8.886698183250e+02       2.537771269837e-03       0.000000000000e+00       1.011003445781e+00       1.237166336659e-07       2.143094106263e-03      -1.659572578335e-06 
   16       8.985431470376e+02       2.793189185195e-03       0.000000000000e+00       1.073695448949e+00       1.260427764268e-07       2.068132242274e-03      -1.384273517800e-06 
   17       9.094294507599e+02       3.181000320614e-03       0.000000000000e+00       1.136483511642e+00       1.281238064889e-07       1.996952633713e-03      -8.834063917472e-07 
   18       9.209855801474e+02       3.737919022428e-03       0.000000000000e+00       1.200936887948e+00       1.299341042152e-07       1.928630522931e-03      -3.898068104030e-07 
   19       9.333003232463e+02       4.462465755717e-03       0.000000000000e+00       1.268789322529e+00       1.316399491277e-07       1.865206908338e-03      -4.777158584354e-08 
   20       9.462095958301e+02       5.336085910611e-03       0.000000000000e+00       1.341393064922e+00       1.331052949862e-07       1.805401028235e-03       3.471960999228e-08 
   21       9.597567202663e+02       6.353908274891e-03       0.000000000000e+00       1.418336942321e+00       1.344181562481e-07       1.749247491828e-03      -1.283217763008e-07 
   22       9.738061957059e+02       7.512941131556e-03       0.000000000000e+00       1.497938907607e+00       1.355510262994e-07       1.694626496743e-03      -4.372716975274e-07 
   23       9.883610716282e+02       8.812768559170e-03       0.000000000000e+00       1.577233194793e+00       1.365785471376e-07       1.642128753738e-03      -7.878146462060e-07 
   24       1.003300222199e+03       1.025292389152e-02       0.000000000000e+00       1.652519256889e+00       1.374558203490e-07       1.591736683498e-03      -1.057403749111e-06 
   25       1.018612724763e+03       1.183647762055e-02       0.000000000000e+00       1.721480585483e+00       1.382176292719e-07       1.544125650601e-03      -1.190640769840e-06 
   26       1.034219696646e+03       1.356883301821e-02       0.000000000000e+00       1.782350961307e+00       1.388210235125e-07       1.499079172706e-03      -1.166750960174e-06 
   27       1.050192646040e+03       1.546315968866e-02       0.000000000000e+00       1.834743384571e+00       1.393611247417e-07       1.457094353622e-03      -1.016945249997e-06 
   28       1.066523614959e+03       1.753682286231e-02       0.000000000000e+00       1.878916983405e+00       1.398651191170e-07       1.417504784752e-03      -8.160653342760e-07 
   29       1.083097936773e+03       1.980746620456e-02       0.000000000000e+00       1.915386166099e+00       1.402260357858e-07       1.378399320568e-03      -6.588435335746e-07 
   30       1.099971304341e+03       2.228422520975e-02       0.000000000000e+00       1.944600917805e+00       1.404986142791e-07       1.340407407931e-03      -5.762596615307e-07 
   31       1.117174449707e+03       2.497297468487e-02       0.000000000000e+00       1.967176051319e+00       1.407208165292e-07       1.304503937295e-03      -5.763421327182e-07 
   32       1.134662001362e+03       2.787891926964e-02       0.000000000000e+00       1.983618791842e+00       1.408480396049e-07       1.271016277007e-03      -6.577376572135e-07 
   33       1.152430706929e+03       3.100821825793e-02       0.000000000000e+00       1.993024245574e+00       1.409197004977e-07       1.239942449139e-03      -7.908610231681e-07 
   34       1.170425721646e+03       3.436684152218e-02       0.000000000000e+00       1.993879491799e+00       1.409444389278e-07       1.210485530939e-03      -9.236618005719e-07 
   35       1.188551296167e+03       3.796049446669e-02       0.000000000000e+00       1.984642766478e+00       1.408724716239e-07       1.181323740247e-03      -9.987000636263e-07 
   36       1.206849381584e+03       4.179601209872e-02       0.000000000000e+00       1.964651600521e+00       1.407498352614e-07       1.152608272229e-03      -1.010083335787e-06 
   37       1.225371074832e+03       4.588039595293e-02       0.000000000000e+00       1.933518087420e+00       1.406208643821e-07       1.124727501813e-03      -9.730927840173e-07 
   38       1.244122574395e+03       5.022042280872e-02       0.000000000000e+00       1.890891140706e+00       1.404701925673e-07       1.097725818256e-03      -9.117473754948e-07 
   39       1.263080941404e+03       5.482236574389e-02       0.000000000000e+00       1.836542859908e+00       1.402401691973e-07       1.071424735982e-03      -8.539437405738e-07 
   40       1.282260686096e+03       5.969108483754e-02       0.000000000000e+00       1.770657728299e+00       1.399572521066e-07       1.046067858996e-03      -8.104286858382e-07 
   41       1.301661049859e+03       6.483059752065e-02       0.000000000000e+00       1.693645695385e+00       1.396522392871e-07       1.021865845045e-03      -7.874392779465e-07 
   42       1.321243295862e+03       7.024427675147e-02       0.000000000000e+00       1.606075016460e+00       1.393168265124e-07       9.987760373868e-04      -7.920504892871e-07 
   43       1.340956278955e+03       7.593536287542e-02       0.000000000000e+00       1.508428679051e+00       1.389175907009e-07       9.765973767226e-04      -8.298540527684e-07 
   44       1.360831455769e+03       8.190877870197e-02       0.000000000000e+00       1.400262446933e+00       1.384827635717e-07       9.554358669043e-04      -8.965540635499e-07 
   45       1.380911256872e+03       8.816981720917e-02       0.000000000000e+00       1.280798861973e+00       1.380458964222e-07       9.353675557207e-04      -9.825860204410e-07 
   46       1.401220596023e+03       9.472363882249e-02       0.000000000000e+00       1.149149523548e+00       1.376167611588e-07       9.162813411686e-04      -1.074759235433e-06 
   47       1.421765022929e+03       1.015752687247e-01       0.000000000000e+00       1.004307774714e+00       1.371737310219e-07       8.978465337702e-04      -1.155819593532e-06 
   48       1.442537444585e+03       1.087289930675e-01       0.000000000000e+00       8.453581702704e-01       1.366775899207e-07       8.796475735006e-04      -1.209227407817e-06 
   49       1.463544839946e+03       1.161863526216e-01       0.000000000000e+00       6.721917692381e-01       1.361442148354e-07       8.617400801476e-04      -1.237029571293e-06 
   50       1.484785902032e+03       1.239475789393e-01       0.000000000000e+00       4.849799085891e-01       1.355970691336e-07       8.442678201422e-04      -1.248654909833e-06 
   51       1.506241751476e+03       1.320121135360e-01       0.000000000000e+00       2.839786799624e-01       1.350444113015e-07       8.273014946790e-04      -1.256619223924e-06 
   52       1.527874526459e+03       1.403785745318e-01       0.000000000000e+00       6.953267613286e-02       1.344749135338e-07       8.108257047844e-04      -1.276857143609e-06 
   53       1.549644354943e+03       1.490455406950e-01       0.000000000000e+00      -1.580483335305e-01       1.338672891182e-07       7.947825467292e-04      -1.324620109268e-06 
   54       1.571568640870e+03       1.580142170516e-01       0.000000000000e+00      -3.989052306898e-01       1.332372702936e-07       7.792552990905e-04      -1.399460479902e-06 
   55       1.593675565441e+03       1.672863965793e-01       0.000000000000e+00      -6.533141179566e-01       1.326056923002e-07       7.643307190982e-04      -1.495131606265e-06 
   56       1.615986414306e+03       1.768637036969e-01       0.000000000000e+00      -9.215701532057e-01       1.319836869313e-07       7.500397910580e-04      -1.603359774260e-06 
   57       1.638514938245e+03       1.867475951788e-01       0.000000000000e+00      -1.203989131032e+00       1.313700533913e-07       7.363491871760e-04      -1.713641747698e-06 
   58       1.661266713847e+03       1.969393610690e-01       0.000000000000e+00      -1.500909064205e+00       1.307483792977e-07       7.231523480807e-04      -1.813034786407e-06 
   59       1.684243026932e+03       2.074390947477e-01       0.000000000000e+00      -1.812595916254e+00       1.300957284405e-07       7.103160328685e-04      -1.889189198775e-06 
   60       1.707455027969e+03       2.182423217511e-01       0.000000000000e+00      -2.138931643399e+00       1.294212345332e-07       6.978610985290e-04      -1.941206687111e-06 
   61       1.730911739908e+03       2.293425882876e-01       0.000000000000e+00      -2.479656372911e+00       1.287394752549e-07       6.858275815181e-04      -1.972141949860e-06 
   62       1.754615348383e+03       2.407323899149e-01       0.000000000000e+00      -2.834456248562e+00       1.280587595814e-07       6.742197231117e-04      -1.986171044373e-06 
   63       1.778560715716e+03       2.524031375102e-01       0.000000000000e+00      -3.202961762961e+00       1.273796025374e-07       6.630012100966e-04      -1.988696528138e-06 
   64       1.802734894903e+03       2.643451232403e-01       0.000000000000e+00      -3.584746089900e+00       1.266930691701e-07       6.520902260773e-04      -1.986456185470e-06 
   65       1.827124019086e+03       2.765488302457e-01       0.000000000000e+00      -3.979414146528e+00       1.259865707830e-07       6.413939628836e-04      -1.985993842485e-06 
   66       1.851736757467e+03       2.890092605102e-01       0.000000000000e+00      -4.386895448702e+00       1.252684892249e-07       6.309369934170e-04      -1.988240043306e-06 
   67       1.876584972847e+03       3.017224654362e-01       0.000000000000e+00      -4.807210479496e+00       1.245505689812e-07       6.207641422512e-04      -1.992424312630e-06 
   68       1.901676510013e+03       3.146842864979e-01       0.000000000000e+00      -5.240386286083e+00       1.238403456442e-07       6.109020812883e-04      -1.997551933350e-06 
   69       1.927014916037e+03       3.278903587988e-01       0.000000000000e+00      -5.686457349975e+00       1.231402051259e-07       6.013569646691e-04      -2.002384436217e-06 
   70       1.952599160578e+03       3.413361146276e-01       0.000000000000e+00      -6.145466457261e+00       1.224463692667e-07       5.921119758983e-04      -2.005419468789e-06 
   71       1.978423356185e+03       3.550167870151e-01       0.000000000000e+00      -6.617465568849e+00       1.217478056425e-07       5.831247871835e-04      -2.004870043692e-06 
   72       2.004480905085e+03       3.689267522703e-01       0.000000000000e+00      -7.102456130914e+00       1.210314658849e-07       5.743468977136e-04      -1.999157405278e-06 
   73       2.030778482631e+03       3.830574035818e-01       0.000000000000e+00      -7.600194808055e+00       1.203031437118e-07       5.657941904595e-04      -1.988604351782e-06 
   74       2.057324245015e+03       3.973988737810e-01       0.000000000000e+00      -8.110351859671e+00       1.195723825894e-07       5.574918168923e-04      -1.974188019366e-06 
   75       2.084123464999e+03       4.119406488591e-01       0.000000000000e+00      -8.632567892043e+00       1.188462588817e-07       5.494526528964e-04      -1.957079999255e-06 
   76       2.111178353280e+03       4.266715564317e-01       0.000000000000e+00      -9.166453345932e+00       1.181288565810e-07       5.416759067981e-04      -1.938659648493e-06 
   77       2.138487879851e+03       4.415797542038e-01       0.000000000000e+00      -9.711587984173e+00       1.174207043229e-07       5.341456811146e-04      -1.920527751657e-06 
   78       2.166047595365e+03       4.566527184345e-01       0.000000000000e+00      -1.026752037927e+01       1.167181736576e-07       5.268294880237e-04      -1.904520533533e-06 
   79       2.193849452492e+03       4.718772324018e-01       0.000000000000e+00      -1.083376740100e+01       1.160128375503e-07       5.196767185540e-04      -1.892724022740e-06 
   80       2.221885581628e+03       4.872399597291e-01       0.000000000000e+00      -1.140985329888e+01       1.152953158370e-07       5.126361039057e-04      -1.887006543809e-06 
   81       2.250160766149e+03       5.027293044064e-01       0.000000000000e+00      -1.199543589345e+01       1.145699680993e-07       5.057169543861e-04      -1.887441547980e-06 
   82       2.278681817721e+03       5.183338542461e-01       0.000000000000e+00      -1.259020146733e+01       1.138439845374e-07       4.989409137893e-04      -1.893502749121e-06 
   83       2.307453710602e+03       5.340418240190e-01       0.000000000000e+00      -1.319382733425e+01       1.131230092837e-07       4.923236731483e-04      -1.904499599640e-06 
   84       2.336479476237e+03       5.498410547496e-01       0.000000000000e+00      -1.380598205993e+01       1.124108388516e-07       4.858743187943e-04      -1.919565287034e-06 
   85       2.365760097845e+03       5.657190130117e-01       0.000000000000e+00      -1.442632568284e+01       1.117091009696e-07       4.795946604155e-04      -1.937644415795e-06 
   86       2.395294405013e+03       5.816627902243e-01       0.000000000000e+00      -1.505450993509e+01       1.110169133174e-07       4.734785391152e-04      -1.957480374661e-06 
   87       2.425078968283e+03       5.976591019468e-01       0.000000000000e+00      -1.569017846324e+01       1.103305216809e-07       4.675111154674e-04      -1.977602389228e-06 
   88       2.455107993749e+03       6.136942871748e-01       0.000000000000e+00      -1.633296704915e+01       1.096429170408e-07       4.616681375738e-04      -1.996312259910e-06 
   89       2.485375602369e+03       6.297544487036e-01       0.000000000000e+00      -1.698249250102e+01       1.089467534960e-07       4.559251544813e-04      -2.012047483645e-06 
   90       2.515883307469e+03       6.458259009879e-01       0.000000000000e+00      -1.763831684805e+01       1.082450969067e-07       4.502893426576e-04      -2.024599607918e-06 
   91       2.546633521466e+03       6.618947915656e-01       0.000000000000e+00      -1.829997790982e+01       1.075432601278e-07       4.447737508324e-04      -2.034156396208e-06 
   92       2.577627206855e+03       6.779469676336e-01       0.000000000000e+00      -1.896700017646e+01       1.068456079478e-07       4.393876338538e-04      -2.040952611982e-06 
   93       2.608863806520e+03       6.939679774564e-01       0.000000000000e+00      -1.963889485977e+01       1.061553874737e-07       4.341360886455e-04      -2.045272870615e-06 
   94       2.640341174053e+03       7.099430717753e-01       0.000000000000e+00      -2.031515994431e+01       1.054745485292e-07       4.290196801706e-04      -2.047454554997e-06 
   95       2.672055504073e+03       7.258572052174e-01       0.000000000000e+00      -2.099528023847e+01       1.048035538452e-07       4.240340574043e-04      -2.047890794823e-06 
   96       2.704001262540e+03       7.416950377045e-01       0.000000000000e+00      -2.167872742562e+01       1.041411788180e-07       4.191695593136e-04      -2.047033509583e-06 
   97       2.736171117074e+03       7.574409358620e-01       0.000000000000e+00      -2.236496011516e+01       1.034843006147e-07       4.144108108443e-04      -2.045396515223e-06 
   98       2.768555867271e+03       7.730789744280e-01       0.000000000000e+00      -2.305342389368e+01       1.028276764012e-07       4.097363089173e-04      -2.043558694505e-06 
   99       2.801146669957e+03       7.885933135964e-01       0.000000000000e+00      -2.374356255014e+01       1.021660280463e-07       4.051254840944e-04      -2.042048262238e-06 
  100       2.833942225219e+03       8.039693889860e-01       0.000000000000e+00      -2.443485345540e+01       1.015015073346e-07       4.005825474230e-04      -2.040960170464e-06 
  101       2.866942483495e+03       8.191928936218e-01       0.000000000000e+00      -2.512677731217e+01       1.008378890813e-07       3.961169049091e-04      -2.040263684297e-06 
  102       2.900146400112e+03       8.342494229280e-01       0.000000000000e+00      -2.581880761210e+01       1.001783422554e-07       3.917359379556e-04      -2.039913331753e-06 
  103       2.933551893416e+03       8.491244806938e-01       0.000000000000e+00      -2.651041082234e+01       9.952533283568e-08       3.874448225486e-04      -2.039847892433e-06 
  104       2.967155802908e+03       8.638034850390e-01       0.000000000000e+00      -2.720104657207e+01       9.888052151903e-08       3.832463439226e-04      -2.039989362938e-06 
  105       3.000953847377e+03       8.782717743797e-01       0.000000000000e+00      -2.789016783905e+01       9.824465617864e-08       3.791407067062e-04      -2.040241899013e-06 
  106       3.034940583037e+03       8.925146133945e-01       0.000000000000e+00      -2.857722113615e+01       9.761745896826e-08       3.751253405449e-04      -2.040490734410e-06 
  107       3.069109361660e+03       9.065171989896e-01       0.000000000000e+00      -2.926164669793e+01       9.699750796884e-08       3.711947012054e-04      -2.040601076498e-06 
