# dimensionless total lensed [l(l+1)/2pi] C_l's
# for l=2 to 2500, i.e. number of multipoles equal to 2499
#
# -> if you prefer output in CAMB/HealPix/LensPix units/order, set 'format' to 'camb' in input file
# -> if you don't want to see such a header, set 'headers' to 'no' in input file
# -> for CMB lensing (phi), these are C_l^phi-phi for the lensing potential.
#    Remember the conversion factors:
#    C_l^dd (deflection) = l(l+1) C_l^phi-phi
#    C_l^gg (shear/convergence) = 1/4 (l(l+1))^2 C_l^phi-phi
#
# 1:l     2:TT                     3:EE                     4:TE                     5:BB                     6:phiphi                 7:TPhi                   8:Ephi               
    2       1.514180133179e-10       4.795527371705e-15       3.801878424975e-13       2.283383759557e-19       8.433978858295e-09       5.087354229400e-10      -2.012671802559e-12 
    3       1.417795336745e-10       6.057546640800e-15       4.283801846596e-13       4.567738293520e-19       5.156340247609e-09       3.577171671406e-10      -1.512503484774e-12 
    4       1.331123569633e-10       5.153882320499e-15       4.001135105869e-13       7.615035640124e-19       3.569743415856e-09       2.694365514021e-10      -9.773647282691e-13 
    5       1.266723418327e-10       3.378502377473e-15       3.395180776596e-13       1.142651837738e-18       2.655616095934e-09       2.119962085980e-10      -5.316319095659e-13 
    6       1.222204816760e-10       1.861082283702e-15       2.719870023892e-13       1.600369634388e-18       2.068675853134e-09       1.719416714791e-10      -2.077484890600e-13 
    7       1.192705655196e-10       1.002719489473e-15       2.121772891612e-13       2.134831956204e-18       1.664717223726e-09       1.426713562538e-10      -5.427285002923e-15 
    8       1.174620965799e-10       6.540144719578e-16       1.664224436761e-13       2.746234750985e-18       1.372675946509e-09       1.205568942799e-10       9.373094475114e-14 
    9       1.164964052974e-10       5.269162652780e-16       1.359971826733e-13       3.434791560300e-18       1.153669202101e-09       1.034256829354e-10       1.170550216932e-13 
   10       1.161251366507e-10       4.456675524142e-16       1.192964344823e-13       4.200729981407e-18       9.845493180874e-10       8.986366737249e-11       9.406018474238e-14 
   11       1.162518132053e-10       3.724716174556e-16       1.132785997855e-13       5.044288038954e-18       8.436119384045e-10       7.968462191607e-11       5.160479071324e-14 
   12       1.167326089275e-10       3.257280271654e-16       1.145492790278e-13       5.965710562806e-18       7.370404211485e-10       7.042787048393e-11       8.621858065223e-15 
   13       1.174959222430e-10       3.141192012317e-16       1.201183045633e-13       6.965245665410e-18       6.495489043151e-10       6.288176038216e-11      -2.256053923368e-14 
   14       1.184693376320e-10       3.265022073197e-16       1.277602294409e-13       8.043141406158e-18       5.767553790662e-10       5.629289502276e-11      -3.818671934569e-14 
   15       1.196501245847e-10       3.508356996957e-16       1.360935327696e-13       9.199642721518e-18       5.154859736079e-10       5.075623911767e-11      -3.930469612740e-14 
   16       1.209814750575e-10       3.864561933373e-16       1.445311833637e-13       1.043498868853e-17       4.633925603928e-10       4.600951623901e-11      -3.079578452219e-14 
   17       1.224492938354e-10       4.399786129133e-16       1.529814317161e-13       1.174941017608e-17       4.187052499636e-10       4.188522610878e-11      -1.852907066477e-14 
   18       1.240073830989e-10       5.163456144274e-16       1.616555014267e-13       1.314312775659e-17       3.799242813311e-10       3.826394964424e-11      -7.733750963128e-15 
   19       1.256676925396e-10       6.153581809906e-16       1.707867604864e-13       1.461635107178e-17       3.464209187571e-10       3.510662098907e-11      -8.991490170657e-16 
   20       1.274081307726e-10       7.345186193675e-16       1.805572212881e-13       1.616927598108e-17       3.169173690148e-10       3.232234443508e-11       6.215899820990e-16 
   21       1.292345276618e-10       8.731712396560e-16       1.909115065526e-13       1.780208652577e-17       2.909483901474e-10       2.985960688360e-11      -2.190449214790e-15 
   22       1.311286403783e-10       1.030913317092e-15       2.016231561300e-13       1.951495193262e-17       2.678874037537e-10       2.764092342812e-11      -7.132305278990e-15 
   23       1.330908778467e-10       1.207688824629e-15       2.122928979219e-13       2.130803037507e-17       2.474249042349e-10       2.564433729529e-11      -1.230292354816e-14 
   24       1.351049328744e-10       1.403434844556e-15       2.224225458749e-13       2.318146546552e-17       2.290930339151e-10       2.384236947006e-11      -1.583868181635e-14 
   25       1.371693338461e-10       1.618564569572e-15       2.317002342135e-13       2.513539055829e-17       2.126425065721e-10       2.222182753723e-11      -1.713475443911e-14 
   26       1.392734605603e-10       1.853805166772e-15       2.398881788757e-13       2.716992639000e-17       1.977507457443e-10       2.075916247318e-11      -1.615710043137e-14 
   27       1.414269381684e-10       2.110929250614e-15       2.469342674958e-13       2.928519000726e-17       1.843401120922e-10       1.944377519245e-11      -1.357033247354e-14 
   28       1.436286941840e-10       2.392274182166e-15       2.528733715217e-13       3.148128692295e-17       1.722476836416e-10       1.825157437588e-11      -1.050753218214e-14 
   29       1.458632910946e-10       2.700214740109e-15       2.577747307276e-13       3.375831139111e-17       1.611793514780e-10       1.714625339741e-11      -8.195519257265e-15 
   30       1.481382246889e-10       3.035980302805e-15       2.616989147412e-13       3.611636020835e-17       1.510737787948e-10       1.612683560076e-11      -6.933149406566e-15 
   31       1.504576303826e-10       3.400361238059e-15       2.647286851053e-13       3.855552353260e-17       1.418556618238e-10       1.519649291035e-11      -6.713953774608e-15 
   32       1.528153984367e-10       3.794057636996e-15       2.669323231612e-13       4.107588395714e-17       1.333788253834e-10       1.435069607373e-11      -7.426335433834e-15 
   33       1.552110887992e-10       4.217898082130e-15       2.681880148343e-13       4.367752692642e-17       1.255968810140e-10       1.358184948895e-11      -8.662785430726e-15 
   34       1.576373158192e-10       4.672685606604e-15       2.682920973435e-13       4.636053392521e-17       1.184407049814e-10       1.287478352440e-11      -9.824112249316e-15 
   35       1.600811870869e-10       5.159187591227e-15       2.670370288307e-13       4.912498143641e-17       1.118035489079e-10       1.221061316311e-11      -1.032294512287e-14 
   36       1.625483472050e-10       5.678323470862e-15       2.643336417239e-13       5.197094687121e-17       1.056680444905e-10       1.158733154248e-11      -1.015450849981e-14 
   37       1.650456717595e-10       6.231035059481e-15       2.601297341444e-13       5.489850478745e-17       1.000148395321e-10       1.100546679800e-11      -9.521719979828e-15 
   38       1.675739918621e-10       6.818233865095e-15       2.543780653165e-13       5.790772546382e-17       9.478420551098e-11       1.046221379670e-11      -8.689689002814e-15 
   39       1.701302160141e-10       7.440763541593e-15       2.470479824416e-13       6.099867429901e-17       8.989754435723e-11       9.952981186899e-12      -7.932695316032e-15 
   40       1.727162943796e-10       8.099277493217e-15       2.381643529979e-13       6.417140948641e-17       8.533978786989e-11       9.477455369973e-12      -7.342546312385e-15 
   41       1.753321215951e-10       8.794315644677e-15       2.277824019105e-13       6.742598373666e-17       8.109886137460e-11       9.035061718369e-12      -6.962325348490e-15 
   42       1.779724795114e-10       9.526331115212e-15       2.159786705419e-13       7.076244498203e-17       7.714109995149e-11       8.623092699767e-12      -6.838294608958e-15 
   43       1.806304795997e-10       1.029575910862e-14       2.028182272030e-13       7.418083297856e-17       7.342367373195e-11       8.237753663997e-12      -6.999950467528e-15 
   44       1.833103538690e-10       1.110326120406e-14       1.882413238389e-13       7.768116770655e-17       6.994078968267e-11       7.878123036254e-12      -7.392608406240e-15 
   45       1.860178118552e-10       1.194954873188e-14       1.721433603570e-13       8.126345745260e-17       6.668883885130e-11       7.543118714489e-12      -7.923904302703e-15 
   46       1.887562050197e-10       1.283531511060e-14       1.544048079435e-13       8.492770179672e-17       6.365252597538e-11       7.230274931308e-12      -8.480806503416e-15 
   47       1.915262780760e-10       1.376123548330e-14       1.348902246939e-13       8.867389145256e-17       6.080395878631e-11       6.935637343951e-12      -8.928413970821e-15 
   48       1.943270739557e-10       1.472788540432e-14       1.134764538139e-13       9.250200508374e-17       5.811122020439e-11       6.654935704492e-12      -9.148357698648e-15 
   49       1.971595305986e-10       1.573547064318e-14       9.014891447951e-14       9.641199906430e-17       5.556906727974e-11       6.387737550569e-12      -9.169609753275e-15 
   50       2.000234708054e-10       1.678402059105e-14       6.493076293524e-14       1.004038145574e-16       5.317532122888e-11       6.134285142015e-12      -9.072482781118e-15 
   51       2.029163519786e-10       1.787345817751e-14       3.785657189848e-14       1.044773799810e-16       5.092172371852e-11       5.894281359158e-12      -8.953044705921e-15 
   52       2.058330763085e-10       1.900359537688e-14       8.972835097335e-15       1.086326106938e-16       4.879350999049e-11       5.666849975466e-12      -8.923937450721e-15 
   53       2.087682754327e-10       2.017423875052e-14      -2.167863608296e-14       1.128694122612e-16       4.677403533130e-11       5.450888775932e-12      -9.084694820863e-15 
   54       2.117242910545e-10       2.138554827927e-14      -5.411669638284e-14       1.171876919599e-16       4.486103376888e-11       5.246326961911e-12      -9.421850908689e-15 
   55       2.147049156648e-10       2.263776297038e-14      -8.837839937803e-14       1.215873496848e-16       4.305379620137e-11       5.053121839843e-12      -9.884572194052e-15 
   56       2.177130135716e-10       2.393109901551e-14      -1.245033576584e-13       1.260682744672e-16       4.134827284815e-11       4.870871544829e-12      -1.041246023701e-14 
   57       2.207504348375e-10       2.526574991077e-14      -1.625339556019e-13       1.306303443116e-16       3.973685825509e-11       4.698791784794e-12      -1.093509153862e-14 
   58       2.238179292170e-10       2.664188657667e-14      -2.025155621491e-13       1.352734260311e-16       3.820817629975e-11       4.535692584642e-12      -1.137155740174e-14 
   59       2.269156686132e-10       2.805951878341e-14      -2.444838431650e-13       1.399973867788e-16       3.675020577415e-11       4.380299439045e-12      -1.165004590172e-14 
   60       2.300451515930e-10       2.951804157441e-14      -2.884227745609e-13       1.448021321381e-16       3.536099304184e-11       4.232356681394e-12      -1.177294322535e-14 
   61       2.332075898395e-10       3.101658353372e-14      -3.342972372890e-13       1.496875766042e-16       3.404005162741e-11       4.091739703962e-12      -1.176606443886e-14 
   62       2.364032744235e-10       3.255413173130e-14      -3.820648404871e-13       1.546536328946e-16       3.278514070184e-11       3.958121734308e-12      -1.166015544977e-14 
   63       2.396315103685e-10       3.412952714149e-14      -4.316756969508e-13       1.597002121818e-16       3.159216332772e-11       3.830962254306e-12      -1.149111226125e-14 
   64       2.428905512158e-10       3.574146006152e-14      -4.830721986054e-13       1.648272243259e-16       3.045506470436e-11       3.709495419176e-12      -1.130020022647e-14 
   65       2.461785263593e-10       3.738864657361e-14      -5.362010084825e-13       1.700345915735e-16       2.936749901703e-11       3.592940583752e-12      -1.112507801549e-14 
   66       2.494965982917e-10       3.907041165888e-14      -5.910524928433e-13       1.753222925048e-16       2.832846884325e-11       3.481211715781e-12      -1.097016755201e-14 
   67       2.528463590136e-10       4.078622175191e-14      -6.476292634071e-13       1.806903278371e-16       2.733770170791e-11       3.374337965951e-12      -1.083038233815e-14 
   68       2.562288593044e-10       4.253551506766e-14      -7.059348127381e-13       1.861387083769e-16       2.639393555930e-11       3.272249549977e-12      -1.069973178218e-14 
   69       2.596445710574e-10       4.431770208414e-14      -7.659736314380e-13       1.916674556295e-16       2.549486648569e-11       3.174772380416e-12      -1.057128324201e-14 
   70       2.630933496150e-10       4.613216602505e-14      -8.277513253384e-13       1.972766024080e-16       2.463709643192e-11       3.081622698488e-12      -1.043712406869e-14 
   71       2.665743961038e-10       4.797826334244e-14      -8.912747326935e-13       2.029661934423e-16       2.381608091599e-11       2.992401705896e-12      -1.028832364993e-14 
   72       2.700868160933e-10       4.985523529800e-14      -9.565438898858e-13       2.087362893395e-16       2.302729564021e-11       2.906701367629e-12      -1.011749795665e-14 
   73       2.736315034185e-10       5.176192198591e-14      -1.023525882719e-12       2.145869779890e-16       2.227011175708e-11       2.824457261399e-12      -9.927157429594e-15 
   74       2.772095515746e-10       5.369699403332e-14      -1.092176164299e-12       2.205183664575e-16       2.154457343953e-11       2.745654071837e-12      -9.722900336295e-15 
   75       2.808216657907e-10       5.565903511717e-14      -1.162446194048e-12       2.265305785064e-16       2.085022085643e-11       2.670217638732e-12      -9.510973342060e-15 
   76       2.844681389801e-10       5.764654041710e-14      -1.234283368794e-12       2.326237552775e-16       2.018606571787e-11       2.598012127008e-12      -9.298292971344e-15 
   77       2.881488276903e-10       5.965791506839e-14      -1.307630953855e-12       2.387980559785e-16       1.955056682033e-11       2.528837196688e-12      -9.092467069151e-15 
   78       2.918631280521e-10       6.169147261489e-14      -1.382428014119e-12       2.450536585689e-16       1.894160559195e-11       2.462425172867e-12      -8.901816262422e-15 
   79       2.956099517300e-10       6.374543346195e-14      -1.458609345140e-12       2.513907604456e-16       1.835646163771e-11       2.398438215680e-12      -8.735395421420e-15 
   80       2.993882345661e-10       6.581800195643e-14      -1.536110735214e-12       2.578095706141e-16       1.779248701189e-11       2.336552265749e-12      -8.600817191432e-15 
   81       3.031986171508e-10       6.790761644618e-14      -1.614885955670e-12       2.643102831277e-16       1.724931769035e-11       2.276731895668e-12      -8.497240079107e-15 
   82       3.070420135728e-10       7.001274002654e-14      -1.694892609233e-12       2.708931002660e-16       1.672700331140e-11       2.218998248095e-12      -8.421196111482e-15 
   83       3.109190906805e-10       7.213178568079e-14      -1.776087090436e-12       2.775582411591e-16       1.622533122257e-11       2.163345295630e-12      -8.368661663299e-15 
   84       3.148302538965e-10       7.426311618916e-14      -1.858424615436e-12       2.843059423161e-16       1.574381496521e-11       2.109738617735e-12      -8.335038215995e-15 
   85       3.187756330324e-10       7.640504403781e-14      -1.941859251819e-12       2.911364581526e-16       1.528168275917e-11       2.058114177659e-12      -8.315133116691e-15 
   86       3.227550681030e-10       7.855583132784e-14      -2.026343948407e-12       2.980500615192e-16       1.483786598736e-11       2.008377099361e-12      -8.303140337183e-15 
   87       3.267680951412e-10       8.071368968426e-14      -2.111830565065e-12       3.050470442291e-16       1.441098768037e-11       1.960400444433e-12      -8.292621232928e-15 
   88       3.308139320118e-10       8.287678016502e-14      -2.198269902510e-12       3.121277175865e-16       1.399935100113e-11       1.914023989022e-12      -8.276485302033e-15 
   89       3.348917847140e-10       8.504323224821e-14      -2.285610212024e-12       3.192924121978e-16       1.360134250886e-11       1.869093854390e-12      -8.248515243037e-15 
   90       3.390018522714e-10       8.721120440587e-14      -2.373792391692e-12       3.265414762214e-16       1.321673954905e-11       1.825591189221e-12      -8.208258237031e-15 
   91       3.431444540741e-10       8.937883290877e-14      -2.462754088022e-12       3.338752778149e-16       1.284558768846e-11       1.783521513878e-12      -8.156870068074e-15 
   92       3.473197141715e-10       9.154421378613e-14      -2.552431155894e-12       3.412942063374e-16       1.248779896538e-11       1.742875061250e-12      -8.095642968871e-15 
   93       3.515275518877e-10       9.370540302041e-14      -2.642757665598e-12       3.487986728666e-16       1.214314658816e-11       1.703626165716e-12      -8.026009515315e-15 
   94       3.557676724377e-10       9.586041674213e-14      -2.733665909865e-12       3.563891107161e-16       1.181125963373e-11       1.665732652106e-12      -7.949546521047e-15 
   95       3.600395575430e-10       9.800723142465e-14      -2.825086410903e-12       3.640659759531e-16       1.149161774619e-11       1.629135224661e-12      -7.867978931998e-15 
   96       3.643424560475e-10       1.001437840790e-13      -2.916947927433e-12       3.718297479149e-16       1.118354583527e-11       1.593756856003e-12      -7.783183720948e-15 
   97       3.686753745333e-10       1.022679724488e-13      -3.009177461721e-12       3.796809297269e-16       1.088620877495e-11       1.559502176089e-12      -7.697193782073e-15 
   98       3.730370679363e-10       1.043776552047e-13      -3.101700266614e-12       3.876200488195e-16       1.059860610196e-11       1.526256861180e-12      -7.612201825498e-15 
   99       3.774263392200e-10       1.064707031083e-13      -3.194441362140e-12       3.956476571521e-16       1.031980081276e-11       1.493914626454e-12      -7.530125570112e-15 
  100       3.818430071123e-10       1.085451603500e-13      -3.287330315189e-12       4.037643308020e-16       1.004965419155e-11       1.462463887121e-12      -7.451224631625e-15 
  101       3.862870586447e-10       1.105991065312e-13      -3.380297153050e-12       4.119706712781e-16       9.788185699986e-12       1.431912294091e-12      -7.375294052149e-15 
  102       3.907583467568e-10       1.126306085368e-13      -3.473270939258e-12       4.202673063162e-16       9.535345731523e-12       1.402259952437e-12      -7.302084119439e-15 
  103       3.952565846580e-10       1.146377213479e-13      -3.566179798924e-12       4.286548903926e-16       9.291013147468e-12       1.373499144956e-12      -7.231298943853e-15 
  104       3.997813401896e-10       1.166184888544e-13      -3.658950944072e-12       4.371341052382e-16       9.054992813098e-12       1.345614055715e-12      -7.162595035304e-15 
  105       4.043320301867e-10       1.185709446673e-13      -3.751510698966e-12       4.457056603519e-16       8.827013133751e-12       1.318580493605e-12      -7.095579880214e-15 
  106       4.089079148402e-10       1.204931129316e-13      -3.843784525448e-12       4.543702935144e-16       8.606723590924e-12       1.292365615897e-12      -7.029810518470e-15 
  107       4.135080920587e-10       1.223830091391e-13      -3.935697048265e-12       4.631287713021e-16       8.393692278370e-12       1.266927651787e-12      -6.964792120376e-15 
