# dimensionless total lensed [l(l+1)/2pi] C_l's
# for l=2 to 2500, i.e. number of multipoles equal to 2499
#
# -> if you prefer output in CAMB/HealPix/LensPix units/order, set 'format' to 'camb' in input file
# -> if you don't want to see such a header, set 'headers' to 'no' in input file
# -> for CMB lensing (phi), these are C_l^phi-phi for the lensing potential.
#    Remember the conversion factors:
#    C_l^dd (deflection) = l(l+1) C_l^phi-phi
#    C_l^gg (shear/convergence) = 1/4 (l(l+1))^2 C_l^phi-phi
#
# 1:l     2:TT                     3:EE                     4:TE                     5:BB                     6:phiphi                 7:TPhi                   8:Ephi               
    2       1.513658687472e-10       4.794129094716e-15       3.799484648576e-13       2.253185719070e-19       8.309212744783e-09       5.059433611263e-10      -2.012650107741e-12 
    3       1.417630877479e-10       6.054722791436e-15       4.281330586039e-13       4.507370720630e-19       5.129978591379e-09       3.573270600781e-10      -1.512239626782e-12 
    4       1.331047583074e-10       5.149235821265e-15       3.998294663351e-13       7.514484181742e-19       3.573529015132e-09       2.695933040570e-10      -9.768250125748e-13 
    5       1.266690778889e-10       3.373693446701e-15       3.392047115216e-13       1.127580071393e-18       2.668825124171e-09       2.123223181588e-10      -5.310568593323e-13 
    6       1.222202627358e-10       1.856951147311e-15       2.716326326075e-13       1.579286532542e-18       2.084745693199e-09       1.723412623643e-10      -2.072771836135e-13 
    7       1.192713296876e-10       9.995789803951e-16       2.117813741161e-13       2.106746347899e-18       1.680681398708e-09       1.430962658092e-10      -5.100597719831e-15 
    8       1.174634457196e-10       6.514620301388e-16       1.659776368689e-13       2.710158728461e-18       1.387234042227e-09       1.209800977981e-10       9.389941584428e-14 
    9       1.164980383276e-10       5.245141304439e-16       1.354992505909e-13       3.389739885550e-18       1.166734700840e-09       1.038419508023e-10       1.170686504341e-13 
   10       1.161274994955e-10       4.432529663589e-16       1.187405266756e-13       4.145719192733e-18       9.966551198952e-10       9.028165276484e-11       9.394895482021e-14 
   11       1.162552853742e-10       3.700491395899e-16       1.126648552906e-13       4.978335287142e-18       8.432620140522e-10       7.968689640618e-11       5.144572908341e-14 
   12       1.167355437291e-10       3.232347959988e-16       1.138473781211e-13       5.887832222463e-18       7.367301926709e-10       7.043719626479e-11       8.500386858417e-15 
   13       1.174987111553e-10       3.113645006152e-16       1.193194758997e-13       6.874455781047e-18       6.492774409556e-10       6.289451266309e-11      -2.257837010922e-14 
   14       1.184720716809e-10       3.232098654981e-16       1.269019377387e-13       7.938450044086e-18       5.765165282230e-10       5.630807137761e-11      -3.808383205775e-14 
   15       1.196533973428e-10       3.467518279666e-16       1.351783365082e-13       9.080054306895e-18       5.152712206411e-10       5.077141729898e-11      -3.912100817648e-14 
   16       1.209831224190e-10       3.813940020154e-16       1.435448704938e-13       1.029950041154e-17       4.631993694353e-10       4.602164378023e-11      -3.059266543098e-14 
   17       1.224509436416e-10       4.337658960869e-16       1.519027207554e-13       1.159701055195e-17       4.185316272970e-10       4.189359825761e-11      -1.835863837201e-14 
   18       1.240088005503e-10       5.088049044515e-16       1.604919049912e-13       1.297279537940e-17       3.797646167357e-10       3.827118106575e-11      -7.625160717868e-15 
   19       1.256682014499e-10       6.062652711785e-16       1.695528210301e-13       1.442705388423e-17       3.462799283262e-10       3.511472474043e-11      -8.583896096651e-16 
   20       1.274079168154e-10       7.236009744410e-16       1.792651076407e-13       1.595997044863e-17       3.167898996302e-10       3.233044321450e-11       6.149222880629e-16 
   21       1.292341803439e-10       8.602076975241e-16       1.895820614172e-13       1.757171791530e-17       2.908313203573e-10       2.986691139606e-11      -2.207181428879e-15 
   22       1.311285643477e-10       1.015736447430e-15       2.002816568604e-13       1.926245433735e-17       2.677823112777e-10       2.764757408539e-11      -7.115103560910e-15 
   23       1.330890838039e-10       1.189954456247e-15       2.109242954639e-13       2.103232757514e-17       2.473260061623e-10       2.564977996749e-11      -1.224050570270e-14 
   24       1.350986622225e-10       1.382584665933e-15       2.209667623074e-13       2.288147199247e-17       2.289898696735e-10       2.384589739087e-11      -1.575921239371e-14 
   25       1.371681709582e-10       1.594171573632e-15       2.301381379878e-13       2.481001482970e-17       2.125581718054e-10       2.222842380606e-11      -1.704022614240e-14 
   26       1.392982073231e-10       1.825724758815e-15       2.382627908219e-13       2.681807221813e-17       1.977333566164e-10       2.077770222403e-11      -1.603141616860e-14 
   27       1.414745884332e-10       2.079301027566e-15       2.452730767664e-13       2.890575522585e-17       1.843374686741e-10       1.946538820654e-11      -1.354518915965e-14 
   28       1.436704844531e-10       2.357272125221e-15       2.511634990947e-13       3.107316714507e-17       1.721394724794e-10       1.825347999575e-11      -1.073968371058e-14 
   29       1.458960595686e-10       2.661084594686e-15       2.559995218907e-13       3.332041297417e-17       1.610770030475e-10       1.714081095758e-11      -8.250700309804e-15 
   30       1.481623180390e-10       2.991882210367e-15       2.599044720505e-13       3.564759174012e-17       1.510312207182e-10       1.612917171318e-11      -6.644934211376e-15 
   31       1.504692485622e-10       3.350738400584e-15       2.630034865811e-13       3.805479645873e-17       1.417971599052e-10       1.521078026630e-11      -6.413182462852e-15 
   32       1.528192430854e-10       3.738571577265e-15       2.652409334278e-13       4.054212555120e-17       1.333270564156e-10       1.437522455839e-11      -7.274862127160e-15 
   33       1.552058576285e-10       4.156183540046e-15       2.664933825840e-13       4.310967569884e-17       1.255609308986e-10       1.360315499735e-11      -8.596400965949e-15 
   34       1.576158226120e-10       4.604329300306e-15       2.666196012643e-13       4.575754037171e-17       1.183900186876e-10       1.287159171238e-11      -9.698152795804e-15 
   35       1.600535803024e-10       5.083915476423e-15       2.654773018430e-13       4.848581469195e-17       1.117775567729e-10       1.218244228570e-11      -1.034698067596e-14 
   36       1.625235666753e-10       5.595863144503e-15       2.629095419275e-13       5.129459257466e-17       1.056704435663e-10       1.154313337748e-11      -1.042938724987e-14 
   37       1.650252256003e-10       6.141038679678e-15       2.587727455334e-13       5.418396453311e-17       9.998914016055e-11       1.095794210068e-11      -9.879643013570e-15 
   38       1.675610169063e-10       6.720207230409e-15       2.530530539996e-13       5.715401381426e-17       9.471892052056e-11       1.042498180377e-11      -8.879562997484e-15 
   39       1.701298240931e-10       7.334056930175e-15       2.457891106421e-13       6.020481923883e-17       8.984301913721e-11       9.937664212439e-12      -7.729576698015e-15 
   40       1.727239725271e-10       7.983205616711e-15       2.370427119073e-13       6.333645638349e-17       8.531487544789e-11       9.485054624115e-12      -6.801083049571e-15 
   41       1.753335627832e-10       8.668243675476e-15       2.268758529054e-13       6.654899382128e-17       8.107434142371e-11       9.055170335020e-12      -6.434073068732e-15 
   42       1.779627411542e-10       9.389890107560e-15       2.152695061101e-13       6.984248009771e-17       7.710889632810e-11       8.647015029885e-12      -6.579027481953e-15 
   43       1.806176237368e-10       1.014887973083e-14       2.021807625537e-13       7.321695270626e-17       7.340798584530e-11       8.261868444098e-12      -7.046068073141e-15 
   44       1.833014593841e-10       1.094591904196e-14       1.875646391988e-13       7.667244144588e-17       6.994465418739e-11       7.899873635827e-12      -7.599033802579e-15 
   45       1.860153279773e-10       1.178164812966e-14       1.713746029759e-13       8.020896387867e-17       6.668516229068e-11       7.560313598150e-12      -8.011510355197e-15 
   46       1.887612202372e-10       1.265651575781e-14       1.535649799826e-13       8.382651045036e-17       6.362434747042e-11       7.242779057369e-12      -8.261544075671e-15 
   47       1.915393473359e-10       1.357086482817e-14       1.340887971467e-13       8.752505465683e-17       6.075861441482e-11       6.946177027351e-12      -8.390339220569e-15 
   48       1.943469626597e-10       1.452496271064e-14       1.128968208667e-13       9.130455664711e-17       5.807527063254e-11       6.668305219577e-12      -8.449012401151e-15 
   49       1.971781076620e-10       1.551899788138e-14       8.993732713841e-14       9.516496281513e-17       5.555185017738e-11       6.405772253908e-12      -8.499159753804e-15 
   50       2.000263717035e-10       1.655310782220e-14       6.516222193526e-14       9.910620539106e-17       5.316287237797e-11       6.154983144459e-12      -8.599416814626e-15 
   51       2.028946443425e-10       1.762747944597e-14       3.854789417713e-14       1.031282020313e-16       5.090384977942e-11       5.915596223734e-12      -8.759521467680e-15 
   52       2.057875708850e-10       1.874227011938e-14       1.007962571438e-14       1.072308554117e-16       4.877262790267e-11       5.687866640882e-12      -8.974762292179e-15 
   53       2.087086601139e-10       1.989757693835e-14      -2.025419688497e-14       1.114140528197e-16       4.676220115285e-11       5.471634143412e-12      -9.238806236556e-15 
   54       2.116601719759e-10       2.109343483734e-14      -5.246201337290e-14       1.156776657462e-16       4.486038642661e-11       5.266293418553e-12      -9.543606622029e-15 
   55       2.146434217701e-10       2.232982918660e-14      -8.654962798622e-14       1.200215591760e-16       4.305353462875e-11       5.071054418132e-12      -9.878961416873e-15 
   56       2.176600385000e-10       2.360674158045e-14      -1.225221384843e-13       1.244456230971e-16       4.133949267250e-11       4.885867009363e-12      -1.023127031264e-14 
   57       2.207108223995e-10       2.492411211205e-14      -1.603823655327e-13       1.289497481041e-16       3.971728981584e-11       4.710674077720e-12      -1.058430774001e-14 
   58       2.237952618278e-10       2.628182458454e-14      -2.001302432406e-13       1.335338163555e-16       3.818321648053e-11       4.545123707630e-12      -1.091944222225e-14 
   59       2.269114371846e-10       2.767970518480e-14      -2.417627738521e-13       1.381977015434e-16       3.673065518046e-11       4.388550821888e-12      -1.121553075301e-14 
   60       2.300559248253e-10       2.911752115717e-14      -2.852739824390e-13       1.429412688632e-16       3.534991145007e-11       4.239958821071e-12      -1.144881317401e-14 
   61       2.332252549477e-10       3.059492885776e-14      -3.306557253083e-13       1.477643922485e-16       3.403090219763e-11       4.098292140897e-12      -1.159849189917e-14 
   62       2.364208850194e-10       3.211130729258e-14      -3.779004297692e-13       1.526670106660e-16       3.277230839679e-11       3.963366951820e-12      -1.166517356978e-14 
   63       2.396451772661e-10       3.366588469176e-14      -4.269988917353e-13       1.576490844601e-16       3.157418614393e-11       3.835117734488e-12      -1.165639823664e-14 
   64       2.428998973557e-10       3.525778295761e-14      -4.779394584152e-13       1.627105797101e-16       3.043521366453e-11       3.713315846878e-12      -1.158139257322e-14 
   65       2.461861676205e-10       3.688601473222e-14      -5.307080100922e-13       1.678514687475e-16       2.935261290547e-11       3.597560394312e-12      -1.145114464520e-14 
   66       2.495044202785e-10       3.854948046513e-14      -5.852879419043e-13       1.730717306735e-16       2.832207112737e-11       3.487269099480e-12      -1.127847867988e-14 
   67       2.528543506549e-10       4.024696548093e-14      -6.416601456239e-13       1.783713518766e-16       2.733766249687e-11       3.381669172462e-12      -1.107812983573e-14 
   68       2.562354595879e-10       4.197724867768e-14      -6.998029882911e-13       1.837503342520e-16       2.639342828777e-11       3.280000193908e-12      -1.086419906771e-14 
   69       2.596489128352e-10       4.373946075291e-14      -7.596922838135e-13       1.892087206378e-16       2.548866456044e-11       3.182190909989e-12      -1.064175173628e-14 
   70       2.630959761283e-10       4.553279362932e-14      -8.213012828538e-13       1.947465754859e-16       2.462356997330e-11       3.088303802527e-12      -1.041364315294e-14 
   71       2.665774281833e-10       4.735639517038e-14      -8.846006574946e-13       2.003639783183e-16       2.379764663029e-11       2.998331568424e-12      -1.018299548688e-14 
   72       2.700935289909e-10       4.920936910293e-14      -9.495584829376e-13       2.060610244407e-16       2.300966409280e-11       2.912193412021e-12      -9.953205529227e-15 
   73       2.736439881066e-10       5.109077493988e-14      -1.016140219203e-12       2.118378256579e-16       2.225762339173e-11       2.829731337448e-12      -9.727952457357e-15 
   74       2.772279329412e-10       5.299962790278e-14      -1.084308692829e-12       2.176945109874e-16       2.153872103939e-11       2.750706440973e-12      -9.511205599115e-15 
   75       2.808438770507e-10       5.493489884448e-14      -1.154024078570e-12       2.236312273743e-16       2.084931304153e-11       2.674795203359e-12      -9.307232197112e-15 
   76       2.844903761104e-10       5.689546877680e-14      -1.225245428801e-12       2.296481307675e-16       2.018581797633e-11       2.601673712393e-12      -9.119834361726e-15 
   77       2.881682040323e-10       5.887998305141e-14      -1.297935624160e-12       2.357453558897e-16       1.954769590570e-11       2.531296257393e-12      -8.949882125564e-15 
   78       2.918785179065e-10       6.088697032402e-14      -1.372057296621e-12       2.419230422272e-16       1.893494982362e-11       2.463661037738e-12      -8.797342545644e-15 
   79       2.956221881980e-10       6.291488459845e-14      -1.447571375103e-12       2.481813436874e-16       1.834721831927e-11       2.398724865869e-12      -8.662002694092e-15 
   80       2.993997811385e-10       6.496210421842e-14      -1.524437098904e-12       2.545204291160e-16       1.778375884529e-11       2.336401262722e-12      -8.543461616310e-15 
   81       3.032115411181e-10       6.702693085931e-14      -1.602612031136e-12       2.609404828138e-16       1.724343098611e-11       2.276558553161e-12      -8.441122289124e-15 
   82       3.070573730771e-10       6.910758851994e-14      -1.682052072165e-12       2.674417050531e-16       1.672467972625e-11       2.219017961405e-12      -8.354183578947e-15 
   83       3.109368248975e-10       7.120222251433e-14      -1.762711473043e-12       2.740243125951e-16       1.622551871866e-11       2.163551706464e-12      -8.281632199937e-15 
   84       3.148493826391e-10       7.330895943337e-14      -1.844542237516e-12       2.806885360958e-16       1.574401206815e-11       2.109938026546e-12      -8.222203251875e-15 
   85       3.187954510529e-10       7.542610065964e-14      -1.927492184705e-12       2.874346107001e-16       1.527984810047e-11       2.058140905024e-12      -8.174271932680e-15 
   86       3.227755040880e-10       7.755195923384e-14      -2.011506588398e-12       2.942627848288e-16       1.483299702715e-11       2.008156785826e-12      -8.135929046337e-15 
   87       3.267897743310e-10       7.968480175351e-14      -2.096528763043e-12       3.011733236080e-16       1.440322739694e-11       1.959959359744e-12      -8.105002383463e-15 
   88       3.308382406564e-10       8.182284838950e-14      -2.182500066903e-12       3.081665093338e-16       1.399009774253e-11       1.913498616657e-12      -8.079048151392e-15 
   89       3.349206158756e-10       8.396427290241e-14      -2.269359905220e-12       3.152426419370e-16       1.359294822729e-11       1.868699897750e-12      -8.055342404260e-15 
   90       3.390363343869e-10       8.610720265913e-14      -2.357045733371e-12       3.224020394471e-16       1.321089229192e-11       1.825462947736e-12      -8.030872473093e-15 
   91       3.431845398249e-10       8.824971864924e-14      -2.445493060034e-12       3.296450384575e-16       1.284280830127e-11       1.783660967077e-12      -8.002328395890e-15 
   92       3.473640727103e-10       9.038985550156e-14      -2.534635450341e-12       3.369719945896e-16       1.248733119095e-11       1.743139664209e-12      -7.966094347714e-15 
   93       3.515738176174e-10       9.252563472652e-14      -2.624405742999e-12       3.443832933574e-16       1.214317571874e-11       1.703755639969e-12      -7.919103462889e-15 
   94       3.558138312321e-10       9.465517012672e-14      -2.714739904157e-12       3.518793836210e-16       1.181017997542e-11       1.665500203299e-12      -7.861567982015e-15 
   95       3.600843619085e-10       9.677657834436e-14      -2.805573761698e-12       3.594607500470e-16       1.148840410388e-11       1.628392511737e-12      -7.794645784959e-15 
   96       3.643854979525e-10       9.888794751415e-14      -2.896841862488e-12       3.671279037555e-16       1.117780892811e-11       1.592441496045e-12      -7.719616823029e-15 
   97       3.687171602056e-10       1.009873377359e-13      -2.988477492203e-12       3.748813829282e-16       1.087825215180e-11       1.557645452331e-12      -7.637886400701e-15 
   98       3.730790946304e-10       1.030727815469e-13      -3.080412695150e-12       3.827217534152e-16       1.058948455689e-11       1.523991634187e-12      -7.550988457350e-15 
   99       3.774708648945e-10       1.051422843949e-13      -3.172578294089e-12       3.906496093422e-16       1.031114620222e-11       1.491455844808e-12      -7.460588848974e-15 
  100       3.818918449557e-10       1.071938251102e-13      -3.264903910061e-12       3.986655737183e-16       1.004276262211e-11       1.460002029126e-12      -7.368488629926e-15 
  101       3.863412116467e-10       1.092253563785e-13      -3.357317982212e-12       4.067702990429e-16       9.783741024946e-12       1.429581865934e-12      -7.276627334639e-15 
  102       3.908179372592e-10       1.112348052132e-13      -3.449747787611e-12       4.149644679132e-16       9.533366491803e-12       1.400134360017e-12      -7.187086259354e-15 
  103       3.953207821291e-10       1.132200734285e-13      -3.542119461080e-12       4.232487936314e-16       9.290798175029e-12       1.371585434279e-12      -7.102091743852e-15 
  104       3.998485498760e-10       1.151790891888e-13      -3.634358566989e-12       4.316239974197e-16       9.055259540279e-12       1.343864836579e-12      -7.023530867612e-15 
  105       4.044009083611e-10       1.171099685719e-13      -3.726391859920e-12       4.400907352522e-16       8.826646548248e-12       1.316960339791e-12      -6.951416961691e-15 
  106       4.089776663204e-10       1.190108768133e-13      -3.818145799910e-12       4.486496622252e-16       8.604994924987e-12       1.290870137076e-12      -6.885221962964e-15 
  107       4.135785161392e-10       1.208799801994e-13      -3.909546047287e-12       4.573014554127e-16       8.390291806009e-12       1.265585966011e-12      -6.824343437948e-15 
