# dimensionless total lensed [l(l+1)/2pi] C_l's
# for l=2 to 2500, i.e. number of multipoles equal to 2499
#
# -> if you prefer output in CAMB/HealPix/LensPix units/order, set 'format' to 'camb' in input file
# -> if you don't want to see such a header, set 'headers' to 'no' in input file
# -> for CMB lensing (phi), these are C_l^phi-phi for the lensing potential.
#    Remember the conversion factors:
#    C_l^dd (deflection) = l(l+1) C_l^phi-phi
#    C_l^gg (shear/convergence) = 1/4 (l(l+1))^2 C_l^phi-phi
#
# 1:l     2:TT                     3:EE                     4:TE                     5:BB                     6:phiphi                 7:TPhi                   8:Ephi               
    2       1.513740217974e-10       4.794398397420e-15       3.799727724305e-13       2.253319515505e-19       8.309677802026e-09       5.059658066557e-10      -2.012752877011e-12 
    3       1.417700080856e-10       6.055046965254e-15       4.281570279639e-13       4.507638535346e-19       5.130283397781e-09       3.573437315502e-10      -1.512314591659e-12 
    4       1.331110128698e-10       5.149505650707e-15       3.998516139103e-13       7.514931024187e-19       3.573750443394e-09       2.696062569986e-10      -9.768719810711e-13 
    5       1.266749321576e-10       3.373866263869e-15       3.392236894973e-13       1.127647186628e-18       2.668996711708e-09       2.123328646460e-10      -5.310812038627e-13 
    6       1.222258003776e-10       1.857045933765e-15       2.716473233836e-13       1.579380639177e-18       2.084884632680e-09       1.723502994902e-10      -2.072859459060e-13 
    7       1.192764578068e-10       9.996326668399e-16       2.117926098924e-13       2.106872042300e-18       1.680796745153e-09       1.431043640669e-10      -5.100382683972e-15 
    8       1.174683616621e-10       6.514993631333e-16       1.659866305820e-13       2.710320645456e-18       1.387331646346e-09       1.209875282006e-10       9.390350189084e-14 
    9       1.165029203686e-10       5.245452455553e-16       1.355067756160e-13       3.389942699603e-18       1.166819212016e-09       1.038488828253e-10       1.170732500741e-13 
   10       1.161322552510e-10       4.432807550764e-16       1.187475624601e-13       4.145967617783e-18       9.967293936629e-10       9.028818296424e-11       9.395226990356e-14 
   11       1.162599790326e-10       3.700748439785e-16       1.126721898871e-13       4.978634075156e-18       8.433279851040e-10       7.969313248233e-11       5.144716431958e-14 
   12       1.167402174265e-10       3.232601157305e-16       1.138553659265e-13       5.888186160804e-18       7.367890026005e-10       7.044288620370e-11       8.500087272911e-15 
   13       1.175034052410e-10       3.113914418839e-16       1.193282061402e-13       6.874869688804e-18       6.493302961545e-10       6.289965453129e-11      -2.257981010377e-14 
   14       1.184768721839e-10       3.232402192502e-16       1.269114802016e-13       7.938928767572e-18       5.765641036759e-10       5.631285465854e-11      -3.808575058990e-14 
   15       1.196583493786e-10       3.467870114088e-16       1.351887164631e-13       9.080602714525e-18       5.153143691002e-10       5.077589294461e-11      -3.912280953690e-14 
   16       1.209881516684e-10       3.814358505677e-16       1.435560233673e-13       1.030012338836e-17       4.632387241082e-10       4.602569656190e-11      -3.059406555368e-14 
   17       1.224560962245e-10       4.338167838145e-16       1.519147572140e-13       1.159771299404e-17       4.185675892591e-10       4.189723262117e-11      -1.835956871129e-14 
   18       1.240140287294e-10       5.088664660751e-16       1.605047027790e-13       1.297358218834e-17       3.797975773918e-10       3.827456968037e-11      -7.625769123673e-15 
   19       1.256734865704e-10       6.063394615273e-16       1.695663204852e-13       1.442792996266e-17       3.463102644847e-10       3.511793266584e-11      -8.588501181312e-16 
   20       1.274133287103e-10       7.236904801804e-16       1.792794455978e-13       1.596094069494e-17       3.168178887964e-10       3.233334759930e-11       6.144878308358e-16 
   21       1.292397418850e-10       8.603151318119e-16       1.895973008086e-13       1.757278722118e-17       2.908572030481e-10       2.986948590061e-11      -2.207696834872e-15 
   22       1.311342090938e-10       1.015864021152e-15       2.002976952535e-13       1.926362758429e-17       2.678062804035e-10       2.764996443947e-11      -7.115788086426e-15 
   23       1.330947560428e-10       1.190104197432e-15       2.109410059125e-13       2.103360963409e-17       2.473482434942e-10       2.565206280367e-11      -1.224137996602e-14 
   24       1.351043553562e-10       1.382758580565e-15       2.209840440806e-13       2.288286772249e-17       2.290105376276e-10       2.384800953300e-11      -1.576020687283e-14 
   25       1.371739217610e-10       1.594372243153e-15       2.301559146704e-13       2.481152908005e-17       2.125774209190e-10       2.223032446414e-11      -1.704121869630e-14 
   26       1.393040836484e-10       1.825955445594e-15       2.382810023856e-13       2.681970982925e-17       1.977513144212e-10       2.077941849365e-11      -1.603226424545e-14 
   27       1.414806169811e-10       2.079564841689e-15       2.452916212369e-13       2.890752103310e-17       1.843542485687e-10       1.946694074193e-11      -1.354584063799e-14 
   28       1.436766327235e-10       2.357571797229e-15       2.511822268128e-13       3.107506598176e-17       1.721551696092e-10       1.825486455499e-11      -1.074020836694e-14 
   29       1.459023020642e-10       2.661422987155e-15       2.560183249156e-13       3.332244967722e-17       1.610917118775e-10       1.714204160584e-11      -8.251189656075e-15 
   30       1.481686618313e-10       2.992262508959e-15       2.599233267555e-13       3.564977115442e-17       1.510450321631e-10       1.613029905691e-11      -6.645466872861e-15 
   31       1.504757322418e-10       3.351164065136e-15       2.630224420445e-13       3.805712344115e-17       1.418101531271e-10       1.521188284667e-11      -6.413814517267e-15 
   32       1.528259007136e-10       3.739045911932e-15       2.652599755447e-13       4.054460497525e-17       1.333393032139e-10       1.437634169698e-11      -7.275610287071e-15 
   33       1.552127041703e-10       4.156709492774e-15       2.665123734388e-13       4.311231245969e-17       1.255724905601e-10       1.360425460819e-11      -8.597228716499e-15 
   34       1.576228526230e-10       4.604909512785e-15       2.666382883152e-13       4.576033939049e-17       1.184009341202e-10       1.287257649819e-11      -9.698975437915e-15 
   35       1.600607829246e-10       5.084552889421e-15       2.654954660530e-13       4.848878091604e-17       1.117878695011e-10       1.218324147167e-11      -1.034773286703e-14 
   36       1.625309298108e-10       5.596561248962e-15       2.629270567047e-13       5.129773098123e-17       1.056801956494e-10       1.154373961561e-11      -1.043005058625e-14 
   37       1.650327371173e-10       6.141801495876e-15       2.587895687489e-13       5.418728013100e-17       9.999837177058e-11       1.095841056018e-11      -9.880246632321e-15 
   38       1.675686704362e-10       6.721038828420e-15       2.530691101884e-13       5.715751163517e-17       9.472767084019e-11       1.042537312091e-11      -8.880145176783e-15 
   39       1.701376218589e-10       7.334961258431e-15       2.458042465517e-13       6.020850433603e-17       8.985132454816e-11       9.938025306421e-12      -7.730172929607e-15 
   40       1.727319270728e-10       7.984186449035e-15       2.370566800991e-13       6.334033383344e-17       8.532276650055e-11       9.485414132254e-12      -6.801724392476e-15 
   41       1.753416951469e-10       8.669304457301e-15       2.268883275023e-13       6.655306872098e-17       8.108184173298e-11       9.055537668942e-12      -6.434783897633e-15 
   42       1.779710667410e-10       9.391033468539e-15       2.152802100745e-13       6.984675754752e-17       7.711602862128e-11       8.647392484211e-12      -6.579821487017e-15 
   43       1.806261466566e-10       1.015010721664e-14       2.021895179890e-13       7.322143780266e-17       7.341477275280e-11       8.262253961120e-12      -7.046945226028e-15 
   44       1.833101699509e-10       1.094723092412e-14       1.875713888144e-13       7.667713927796e-17       6.995111694546e-11       7.900259945617e-12      -7.599977595376e-15 
   45       1.860242040066e-10       1.178304345940e-14       1.713794016799e-13       8.021387952189e-17       6.669132007595e-11       7.560688925107e-12      -8.012489591995e-15 
   46       1.887702414431e-10       1.265799326279e-14       1.535678832928e-13       8.383164895124e-17       6.363021910853e-11       7.243133200673e-12      -8.262530318580e-15 
   47       1.915485002885e-10       1.357242320114e-14       1.340898240406e-13       8.753042102369e-17       6.076421824224e-11       6.946503590270e-12      -8.391312991787e-15 
   48       1.943562422089e-10       1.452660067025e-14       1.128959445235e-13       9.131015584271e-17       5.808062361779e-11       6.668602405165e-12      -8.449965190133e-15 
   49       1.971875184379e-10       1.552071423751e-14       8.993446512595e-14       9.517079974908e-17       5.555696697744e-11       6.406043704468e-12      -8.500096137266e-15 
   50       2.000359273628e-10       1.655490158789e-14       6.515723823680e-14       9.911228491391e-17       5.316776508653e-11       6.155237292235e-12      -8.600353077543e-15 
   51       2.029043591539e-10       1.762935009334e-14       3.854064180826e-14       1.031345289357e-16       5.090853012180e-11       5.915840597337e-12      -8.760472345763e-15 
   52       2.057974570291e-10       1.874421773850e-14       1.006995880914e-14       1.072374344275e-16       4.877710753630e-11       5.688105922429e-12      -8.975736563630e-15 
   53       2.087187270984e-10       1.989960236380e-14      -2.026642238993e-14       1.114208886076e-16       4.676649124096e-11       5.471869610870e-12      -9.239805588121e-15 
   54       2.116704260195e-10       2.109553978129e-14      -5.247693902530e-14       1.156847628902e-16       4.486449718273e-11       5.266522359727e-12      -9.544624457923e-15 
   55       2.146538654324e-10       2.233201614780e-14      -8.656739048896e-14       1.200289221847e-16       4.305747515017e-11       5.071270589783e-12      -9.879983636582e-15 
   56       2.176706712012e-10       2.360901300082e-14      -1.225428621140e-13       1.244532564322e-16       4.134327179107e-11       4.886064600682e-12      -1.023228269903e-14 
   57       2.207216402140e-10       2.492647011012e-14      -1.604061584551e-13       1.289576561878e-16       3.972091613318e-11       4.710848990347e-12      -1.058529827922e-14 
   58       2.238062569949e-10       2.628427090074e-14      -2.001571952101e-13       1.335420035704e-16       3.818669809097e-11       4.545273851652e-12      -1.092040156280e-14 
   59       2.269225975973e-10       2.768224112427e-14      -2.417929538205e-13       1.382061722319e-16       3.673399937728e-11       4.388676425313e-12      -1.121645268664e-14 
   60       2.300672334970e-10       2.912014753007e-14      -2.853074360734e-13       1.429500273276e-16       3.535312441502e-11       4.240062752775e-12      -1.144969513845e-14 
   61       2.332366913210e-10       3.059764602504e-14      -3.306924781022e-13       1.477734427593e-16       3.403398899008e-11       4.098379601666e-12      -1.159933472089e-14 
   62       2.364324323368e-10       3.211411556133e-14      -3.779405086029e-13       1.526763574965e-16       3.277527395843e-11       3.963443073433e-12      -1.166597867820e-14 
   63       2.396568252057e-10       3.366878443539e-14      -4.270423319856e-13       1.576587319012e-16       3.157703548726e-11       3.835186822970e-12      -1.165716687550e-14 
   64       2.429116429603e-10       3.526077463598e-14      -4.779863058355e-13       1.627205320771e-16       3.043795175849e-11       3.713381222833e-12      -1.158212574065e-14 
   65       2.461980162624e-10       3.688909891273e-14      -5.307583227814e-13       1.678617303874e-16       2.935524455440e-11       3.597624226261e-12      -1.145184303076e-14 
   66       2.495163866618e-10       3.855265784473e-14      -5.853417923657e-13       1.730823059727e-16       2.832460084326e-11       3.487332230187e-12      -1.127914259869e-14 
   67       2.528664598554e-10       4.025023690910e-14      -6.417176229137e-13       1.783822452688e-16       2.734009436499e-11       3.381730938265e-12      -1.107875915952e-14 
   68       2.562477455213e-10       4.198061513920e-14      -6.998641957175e-13       1.837615502203e-16       2.639576596157e-11       3.280058613730e-12      -1.086479333902e-14 
   69       2.596614083264e-10       4.374292321869e-14      -7.597573220418e-13       1.892202636972e-16       2.549091169018e-11       3.182244086044e-12      -1.064231088171e-14 
   70       2.631087097365e-10       4.553635301399e-14      -8.213702447960e-13       1.947584501818e-16       2.462573027722e-11       3.088350343397e-12      -1.041416771390e-14 
   71       2.665904234557e-10       4.736005232855e-14      -8.846736274497e-13       2.003761892313e-16       2.379972383439e-11       2.998370659767e-12      -1.018348667670e-14 
   72       2.701068036864e-10       4.921312482538e-14      -9.496355357056e-13       2.060735761916e-16       2.301166186742e-11       2.912224889899e-12      -9.953665292105e-15 
   73       2.736575533902e-10       5.109462994962e-14      -1.016221419172e-12       2.118507229124e-16       2.225954528490e-11       2.829755764288e-12      -9.728383528961e-15 
   74       2.772417925484e-10       5.300358285098e-14      -1.084394093037e-12       2.177077584617e-16       2.154057040699e-11       2.750725184169e-12      -9.511611569052e-15 
   75       2.808580264224e-10       5.493895430637e-14      -1.154113719739e-12       2.236448298404e-16       2.085109297424e-11       2.674810516492e-12      -9.307617573110e-15 
   76       2.845048030729e-10       5.689962525079e-14      -1.225339341572e-12       2.296620930452e-16       2.018753129817e-11       2.601688564800e-12      -9.120204357871e-15 
   77       2.881828945034e-10       5.888424096910e-14      -1.298033841663e-12       2.357596827948e-16       1.954934540948e-11       2.531313349970e-12      -8.950241560648e-15 
   78       2.918934574424e-10       6.089133005117e-14      -1.372159858558e-12       2.419377385556e-16       1.893653830709e-11       2.463682488201e-12      -8.797695471577e-15 
   79       2.956373620495e-10       6.291934643266e-14      -1.447678328806e-12       2.481964142129e-16       1.834874854862e-11       2.398752132604e-12      -8.662352283784e-15 
   80       2.994151743097e-10       6.496666838679e-14      -1.524548500433e-12       2.545358785866e-16       1.778523351700e-11       2.336435066048e-12      -8.543810047609e-15 
   81       3.032271384277e-10       6.703159751605e-14      -1.602727946422e-12       2.609563159487e-16       1.724485268711e-11       2.276598794007e-12      -8.441470624839e-15 
   82       3.070731592225e-10       6.911235774395e-14      -1.682172578184e-12       2.674579265400e-16       1.672605089247e-11       2.219063637413e-12      -8.354531642934e-15 
   83       3.109527845217e-10       7.120709430678e-14      -1.762836659036e-12       2.740409270863e-16       1.622684159178e-11       2.163600825502e-12      -8.281978449255e-15 
   84       3.148655009506e-10       7.331393371710e-14      -1.844672202451e-12       2.807055482126e-16       1.574528869853e-11       2.109987765076e-12      -8.222545019880e-15 
   85       3.188117162057e-10       7.543117728453e-14      -1.927627022671e-12       2.874520250602e-16       1.528108050045e-11       2.058188553349e-12      -8.174606864192e-15 
   86       3.227919080991e-10       7.755713797722e-14      -2.011646384125e-12       2.942806060539e-16       1.483418719590e-11       2.008200032779e-12      -8.136255532069e-15 
   87       3.268063134863e-10       7.969008231867e-14      -2.096673591025e-12       3.011915563249e-16       1.440437729900e-11       1.959996343087e-12      -8.105319639490e-15 
   88       3.308549159266e-10       8.182823040421e-14      -2.182649990489e-12       3.081851581749e-16       1.399120928545e-11       1.913527975051e-12      -8.079356300985e-15 
   89       3.349374333457e-10       8.396975591750e-14      -2.269514975686e-12       3.152617115408e-16       1.359402323839e-11       1.868720824309e-12      -8.055642562102e-15 
   90       3.390533056964e-10       8.611278614698e-14      -2.357205988969e-12       3.224215344594e-16       1.321193249425e-11       1.825475245148e-12      -8.031166831852e-15 
   91       3.432016826206e-10       8.825540200234e-14      -2.445658525008e-12       3.296649635319e-16       1.284381528860e-11       1.783665104307e-12      -8.002620315177e-15 
   92       3.473814111107e-10       9.039563803103e-14      -2.534806133933e-12       3.369923543882e-16       1.248830640199e-11       1.743136834771e-12      -7.966388445396e-15 
   93       3.515913808202e-10       9.253151564052e-14      -2.624581637929e-12       3.444040925672e-16       1.214412044450e-11       1.703747659947e-12      -7.919405366746e-15 
   94       3.558316462051e-10       9.466114844510e-14      -2.714920983556e-12       3.519006270177e-16       1.181109547387e-11       1.665488897586e-12      -7.861882998797e-15 
   95       3.601024511253e-10       9.678265286744e-14      -2.805759977311e-12       3.594824425184e-16       1.148929162198e-11       1.628379537640e-12      -7.794978492841e-15 
   96       3.644038789037e-10       9.889411681049e-14      -2.897033143320e-12       3.671500503109e-16       1.117866969072e-11       1.592428321220e-12      -7.719970989307e-15 
   97       3.687358448970e-10       1.009936001297e-13      -2.988673743127e-12       3.749039887071e-16       1.087908735022e-11       1.557633332082e-12      -7.638264897157e-15 
   98       3.730980890667e-10       1.030791351054e-13      -3.080613795486e-12       3.827448236970e-16       1.059029533703e-11       1.523981588108e-12      -7.551393173298e-15 
   99       3.774901685500e-10       1.051487269150e-13      -3.172784096160e-12       3.906731495560e-16       1.031193365231e-11       1.491448632789e-12      -7.461020601982e-15 
  100       3.819114502306e-10       1.072003541054e-13      -3.265114237707e-12       3.986895894528e-16       1.004352776005e-11       1.459998126705e-12      -7.368947074206e-15 
  101       3.863611033098e-10       1.092319690650e-13      -3.357532629275e-12       4.067947960563e-16       9.784484785246e-12       1.429581439009e-12      -7.277110867122e-15 
  102       3.908380918774e-10       1.112414984962e-13      -3.449966516400e-12       4.149894521440e-16       9.534089712102e-12       1.400137238909e-12      -7.187591923434e-15 
  103       3.953411674824e-10       1.132268438879e-13      -3.542342000793e-12       4.232742712086e-16       9.291501582236e-12       1.371591087147e-12      -7.102615130808e-15 
  104       3.998691267075e-10       1.151859331381e-13      -3.634584623232e-12       4.316499746496e-16       9.055943759505e-12       1.343872420552e-12      -7.024066349590e-15 
  105       4.044216395206e-10       1.171168823483e-13      -3.726621159289e-12       4.401172185276e-16       8.827312184511e-12       1.316968998576e-12      -6.951958975384e-15 
  106       4.089985194921e-10       1.190178568675e-13      -3.818378104205e-12       4.486766580019e-16       8.605642581276e-12       1.290879084337e-12      -6.885765380858e-15 
  107       4.135994643221e-10       1.208870231153e-13      -3.909781157129e-12       4.573289702096e-16       8.390922078876e-12       1.265594493569e-12      -6.824883619680e-15 
