# dimensionless total [l(l+1)/2pi] C_l's
# for l=2 to 3000, i.e. number of multipoles equal to 2999
#
# -> if you prefer output in CAMB/HealPix/LensPix units/order, set 'format' to 'camb' in input file
# -> if you don't want to see such a header, set 'headers' to 'no' in input file
# -> for CMB lensing (phi), these are C_l^phi-phi for the lensing potential.
#    Remember the conversion factors:
#    C_l^dd (deflection) = l(l+1) C_l^phi-phi
#    C_l^gg (shear/convergence) = 1/4 (l(l+1))^2 C_l^phi-phi
#
# 1:l     2:TT                     3:EE                     4:TE                     5:BB                     6:phiphi                 7:TPhi                   8:Ephi               
    2       1.513701598410e-10       4.794061309877e-15       3.799639134832e-13       0.000000000000e+00       8.309507263954e-09       5.059559019551e-10      -2.012705961250e-12 
    3       1.417659071117e-10       6.054455079548e-15       4.281470648540e-13       0.000000000000e+00       5.130180586116e-09       3.573371943950e-10      -1.512279342125e-12 
    4       1.331064501939e-10       5.148634146857e-15       3.998423472147e-13       0.000000000000e+00       3.573680256073e-09       2.696016134199e-10      -9.768492123124e-13 
    5       1.266697562796e-10       3.372659995890e-15       3.392159058060e-13       0.000000000000e+00       2.668944410289e-09       2.123293972128e-10      -5.310688251222e-13 
    6       1.222198253431e-10       1.855423284561e-15       2.716412338914e-13       0.000000000000e+00       2.084843331768e-09       1.723474946596e-10      -2.072811132762e-13 
    7       1.192694115253e-10       9.975024965110e-16       2.117881001687e-13       0.000000000000e+00       1.680763071737e-09       1.431018220961e-10      -5.100262476190e-15 
    8       1.174599995257e-10       6.487738220488e-16       1.659834608091e-13       0.000000000000e+00       1.387303661702e-09       1.209850830126e-10       9.390131280959e-14 
    9       1.164930935507e-10       5.211429708219e-16       1.355047035592e-13       0.000000000000e+00       1.166795377341e-09       1.038464999183e-10       1.170705182691e-13 
   10       1.161208940485e-10       4.391242289540e-16       1.187464091740e-13       0.000000000000e+00       9.967087749735e-10       9.028587379562e-11       9.395007553530e-14 
   11       1.162469800382e-10       3.650871688935e-16       1.126718614821e-13       0.000000000000e+00       8.433100112534e-10       7.969085766957e-11       5.144597014948e-14 
   12       1.167254320770e-10       3.173637052556e-16       1.138558780946e-13       0.000000000000e+00       7.367732631635e-10       7.044076193568e-11       8.499902064189e-15 
   13       1.174867123432e-10       3.045082412602e-16       1.193296798971e-13       0.000000000000e+00       6.493164535926e-10       6.289771905140e-11      -2.257925951129e-14 
   14       1.184581756868e-10       3.152921799440e-16       1.269141095205e-13       0.000000000000e+00       5.765519217353e-10       5.631106945381e-11      -3.808483758959e-14 
   15       1.196375255461e-10       3.376961126145e-16       1.351927540605e-13       0.000000000000e+00       5.153035365957e-10       5.077422076298e-11      -3.912189328919e-14 
   16       1.209650672704e-10       3.711238481230e-16       1.435617658651e-13       0.000000000000e+00       4.632290303178e-10       4.602417078286e-11      -3.059335006568e-14 
   17       1.224306602009e-10       4.222050769286e-16       1.519225456011e-13       0.000000000000e+00       4.185589057043e-10       4.189586672469e-11      -1.835912928087e-14 
   18       1.239861409474e-10       4.958761405693e-16       1.605148915145e-13       0.000000000000e+00       3.797897658153e-10       3.827330573501e-11      -7.625566657528e-15 
   19       1.256430454478e-10       5.918914636055e-16       1.695792780824e-13       0.000000000000e+00       3.463031949317e-10       3.511674191299e-11      -8.588017081325e-16 
   20       1.273802411963e-10       7.077057179330e-16       1.792955594741e-13       0.000000000000e+00       3.168114718149e-10       3.233226410415e-11       6.144806849162e-16 
   21       1.292039194230e-10       8.427144621969e-16       1.896169934760e-13       0.000000000000e+00       2.908513614400e-10       2.986851735154e-11      -2.207669332085e-15 
   22       1.310955691069e-10       9.965682863717e-16       2.003214271914e-13       0.000000000000e+00       2.678009491664e-10       2.764906914396e-11      -7.115662732463e-15 
   23       1.330532315501e-10       1.169034266319e-15       2.109692499064e-13       0.000000000000e+00       2.473433635204e-10       2.565122406936e-11      -1.224113809749e-14 
   24       1.350598901553e-10       1.359835408695e-15       2.210172810030e-13       0.000000000000e+00       2.290060594447e-10       2.384725535106e-11      -1.575988190117e-14 
   25       1.371264207311e-10       1.569516944916e-15       2.301946683538e-13       0.000000000000e+00       2.125733009953e-10       2.222966496946e-11      -1.704086124221e-14 
   26       1.392534057368e-10       1.799089346532e-15       2.383258472287e-13       0.000000000000e+00       1.977475175889e-10       2.077883070774e-11      -1.603192690257e-14 
   27       1.414266524489e-10       2.050609443804e-15       2.453431461349e-13       0.000000000000e+00       1.843507443779e-10       1.946641406178e-11      -1.354555917548e-14 
   28       1.436193237451e-10       2.326448812955e-15       2.512410227199e-13       0.000000000000e+00       1.721519326643e-10       1.825441222173e-11      -1.073999331970e-14 
   29       1.458415893312e-10       2.628054450538e-15       2.560849939777e-13       0.000000000000e+00       1.610887158226e-10       1.714166998126e-11      -8.251033452443e-15 
   30       1.481044644010e-10       2.956570859637e-15       2.599984833635e-13       0.000000000000e+00       1.510422495523e-10       1.612999522723e-11      -6.645342925476e-15 
   31       1.504079487501e-10       3.313072210481e-15       2.631067085658e-13       0.000000000000e+00       1.418075578783e-10       1.521161634359e-11      -6.413680006032e-15 
   32       1.527544377096e-10       3.698477247957e-15       2.653539713127e-13       0.000000000000e+00       1.333368732292e-10       1.437608950619e-11      -7.275434017545e-15 
   33       1.551374878665e-10       4.113587955243e-15       2.666167074020e-13       0.000000000000e+00       1.255702107297e-10       1.360401202703e-11      -8.597003880564e-15 
   34       1.575438286119e-10       4.559159632403e-15       2.667535577320e-13       0.000000000000e+00       1.183987969826e-10       1.287235680271e-11      -9.698720038788e-15 
   35       1.599778970082e-10       5.036099816180e-15       2.656222714366e-13       0.000000000000e+00       1.117858669135e-10       1.218305620969e-11      -1.034746800325e-14 
   36       1.624441211146e-10       5.545330799300e-15       2.630660061622e-13       0.000000000000e+00       1.056783164610e-10       1.154359147385e-11      -1.042979319848e-14 
   37       1.649419382885e-10       6.087720200202e-15       2.589412728830e-13       0.000000000000e+00       9.999660254830e-11       1.095829345601e-11      -9.880008375895e-15 
   38       1.674738155366e-10       6.664033947268e-15       2.532341589788e-13       0.000000000000e+00       9.472599885036e-11       1.042528009831e-11      -8.879932712959e-15 
   39       1.700386490931e-10       7.274960821115e-15       2.459831979668e-13       0.000000000000e+00       8.984973933684e-11       9.937951163712e-12      -7.729987105771e-15 
   40       1.726287795307e-10       7.921119301487e-15       2.372500530818e-13       0.000000000000e+00       8.532126097722e-11       9.485356014337e-12      -6.801558936881e-15 
   41       1.752343210627e-10       8.603100321815e-15       2.270965956902e-13       0.000000000000e+00       8.108041232977e-11       9.055494985289e-12      -6.434626182731e-15 
   42       1.778594179681e-10       9.321623042402e-15       2.155037988608e-13       0.000000000000e+00       7.711467211561e-11       8.647364439543e-12      -6.579660504972e-15 
   43       1.805101784444e-10       1.007742224558e-14       2.024287987361e-13       0.000000000000e+00       7.341348548105e-11       8.262238766909e-12      -7.046774562268e-15 
   44       1.831898412361e-10       1.087120426691e-14       1.878266717984e-13       0.000000000000e+00       6.994989494474e-11       7.900254673508e-12      -7.599796519316e-15 
   45       1.858994774353e-10       1.170360916666e-14       1.716509306710e-13       0.000000000000e+00       6.669015923509e-11       7.560689668226e-12      -8.012302730980e-15 
   46       1.886410824419e-10       1.257508670003e-14       1.538558362829e-13       0.000000000000e+00       6.362911531596e-11       7.243136285412e-12      -8.262342420770e-15 
   47       1.914148768387e-10       1.348598114316e-14       1.343943091864e-13       0.000000000000e+00       6.076316756012e-11       6.946506039309e-12      -8.391127244229e-15 
   48       1.942181248906e-10       1.443656138602e-14       1.132169941701e-13       0.000000000000e+00       5.807962247461e-11       6.668602123241e-12      -8.449782873346e-15 
   49       1.970448804786e-10       1.542701757722e-14       9.027202966215e-14       0.000000000000e+00       5.555601237454e-11       6.406039675043e-12      -8.499916260472e-15 
   50       1.998887440493e-10       1.645748909034e-14       6.551117877468e-14       0.000000000000e+00       5.316685463224e-11       6.155229631764e-12      -8.600172595444e-15 
   51       2.027526051160e-10       1.752816515622e-14       3.891071935404e-14       0.000000000000e+00       5.090766146118e-11       5.915830111487e-12      -8.760288350937e-15 
   52       2.056411050820e-10       1.863920574652e-14       1.045582569861e-14       0.000000000000e+00       4.877627824516e-11       5.688094043997e-12      -8.975547006121e-15 
   53       2.085577476514e-10       1.979071080304e-14      -1.986523034419e-14       0.000000000000e+00       4.676569889679e-11       5.471858482768e-12      -9.239609449705e-15 
   54       2.115047864592e-10       2.098271835654e-14      -5.206101060294e-14       0.000000000000e+00       4.486373944069e-11       5.266514921657e-12      -9.544421935298e-15 
   55       2.144835310294e-10       2.221521688592e-14      -8.613744261468e-14       0.000000000000e+00       4.305674978450e-11       5.071270300387e-12      -9.879775981358e-15 
   56       2.174956110865e-10       2.348819030112e-14      -1.220997280524e-13       0.000000000000e+00       4.134257661088e-11       4.886073951633e-12      -1.023207090780e-14 
   57       2.205418295005e-10       2.480158083984e-14      -1.599507879274e-13       0.000000000000e+00       3.972024900156e-11       4.710868934844e-12      -1.058508266348e-14 
   58       2.236216774944e-10       2.615527450866e-14      -1.996906589391e-13       0.000000000000e+00       3.818605698456e-11       4.545303564394e-12      -1.092018164136e-14 
   59       2.267332385726e-10       2.754909975657e-14      -2.413164481088e-13       0.000000000000e+00       3.673338244945e-11       4.388713051811e-12      -1.121622707318e-14 
   60       2.298730924485e-10       2.898282614867e-14      -2.848222874125e-13       0.000000000000e+00       3.535253006249e-11       4.240101148004e-12      -1.144946142429e-14 
   61       2.330377732141e-10       3.045611241200e-14      -3.302001459618e-13       0.000000000000e+00       3.403341586662e-11       4.098412759195e-12      -1.159908972188e-14 
   62       2.362287436642e-10       3.196833994681e-14      -3.774425822116e-13       0.000000000000e+00       3.277472080737e-11       3.963464831254e-12      -1.166571988041e-14 
   63       2.394483721120e-10       3.351873942130e-14      -4.265405318220e-13       0.000000000000e+00       3.157650112062e-11       3.835192787064e-12      -1.165689294387e-14 
   64       2.426984308429e-10       3.510643522711e-14      -4.774824868251e-13       0.000000000000e+00       3.043743509081e-11       3.713369046036e-12      -1.158183668928e-14 
   65       2.459800493563e-10       3.673044254643e-14      -5.302544774680e-13       0.000000000000e+00       2.935474463835e-11       3.597593898712e-12      -1.145154040012e-14 
   66       2.492936676094e-10       3.838966441933e-14      -5.848400540542e-13       0.000000000000e+00       2.832411690699e-11       3.487286381369e-12      -1.127882963972e-14 
   67       2.526389892593e-10       4.008288881091e-14      -6.412202687870e-13       0.000000000000e+00       2.733962585125e-11       3.381675150616e-12      -1.107844102465e-14 
   68       2.560155229346e-10       4.180889713060e-14      -6.993736502133e-13       0.000000000000e+00       2.639531251382e-11       3.280000981944e-12      -1.086447677433e-14 
   69       2.594244379225e-10       4.356682187933e-14      -7.592761611292e-13       0.000000000000e+00       2.549047296311e-11       3.182192310019e-12      -1.064200228982e-14 
   70       2.628670022237e-10       4.535585653550e-14      -8.209011994870e-13       0.000000000000e+00       2.462530589028e-11       3.088310806302e-12      -1.041387252687e-14 
   71       2.663439966440e-10       4.717515043412e-14      -8.842195870209e-13       0.000000000000e+00       2.379931337730e-11       2.998348219930e-12      -1.018320919959e-14 
   72       2.698556830762e-10       4.902380868441e-14      -9.491995509003e-13       0.000000000000e+00       2.301126490603e-11       2.912222664694e-12      -9.953408540506e-15 
   73       2.734017727821e-10       5.090089208751e-14      -1.015806705383e-12       0.000000000000e+00       2.225916136737e-11       2.829774906021e-12      -9.728149060507e-15 
   74       2.769813946746e-10       5.280541705414e-14      -1.084004033469e-12       0.000000000000e+00       2.154019907042e-11       2.750764647950e-12      -9.511399308892e-15 
   75       2.805930635992e-10       5.473635552227e-14      -1.153751868552e-12       0.000000000000e+00       2.085073375155e-11       2.674866820112e-12      -9.307425633365e-15 
   76       2.842353368570e-10       5.669258948265e-14      -1.225009425169e-12       0.000000000000e+00       2.018718372264e-11       2.601756097542e-12      -9.120029216251e-15 
   77       2.879089921009e-10       5.867276516401e-14      -1.297739754049e-12       0.000000000000e+00       1.954900901080e-11       2.531386461487e-12      -8.950079405475e-15 
   78       2.916151908092e-10       6.067541198472e-14      -1.371905661510e-12       0.000000000000e+00       1.893621261497e-11       2.463756108902e-12      -8.797542583145e-15 
   79       2.953548079570e-10       6.269898458921e-14      -1.447468253721e-12       0.000000000000e+00       1.834843309929e-11       2.398821869247e-12      -8.662205070842e-15 
   80       2.991284144115e-10       6.474186183487e-14      -1.524386950125e-12       0.000000000000e+00       1.778492786008e-11       2.336497300753e-12      -8.543665085314e-15 
   81       3.029362593265e-10       6.680234577887e-14      -1.602619496855e-12       0.000000000000e+00       1.724455639272e-11       2.276650786691e-12      -8.441324694170e-15 
   82       3.067782525372e-10       6.887866066503e-14      -1.682121980153e-12       0.000000000000e+00       1.672576355863e-11       2.219103631627e-12      -8.354381771569e-15 
   83       3.106539469555e-10       7.096895191071e-14      -1.762848839791e-12       0.000000000000e+00       1.622656285219e-11       2.163628157696e-12      -8.281821953914e-15 
   84       3.145628337478e-10       7.307134613271e-14      -1.844752263459e-12       0.000000000000e+00       1.574501822144e-11       2.110002793579e-12      -8.222379574712e-15 
   85       3.185053226568e-10       7.518414487787e-14      -1.927780225189e-12       0.000000000000e+00       1.528081795885e-11       2.058192004664e-12      -8.174430649027e-15 
   86       3.224818926738e-10       7.730566130071e-14      -2.011878144833e-12       0.000000000000e+00       1.483393226218e-11       2.008192839782e-12      -8.136067316793e-15 
   87       3.264927815390e-10       7.943416199240e-14      -2.096989481153e-12       0.000000000000e+00       1.440412964846e-11       1.959979658656e-12      -8.105118846862e-15 
   88       3.305379733931e-10       8.156786699348e-14      -2.183055734829e-12       0.000000000000e+00       1.399096859995e-11       1.913503186030e-12      -8.079143071341e-15 
   89       3.346171864287e-10       8.370494980658e-14      -2.270016451482e-12       0.000000000000e+00       1.359378921013e-11       1.868689565793e-12      -8.055417819928e-15 
   90       3.387298605427e-10       8.584353740918e-14      -2.357809224682e-12       0.000000000000e+00       1.321170482974e-11       1.825439415103e-12      -8.030932354242e-15 
   91       3.428751449873e-10       8.798171026633e-14      -2.446369698964e-12       0.000000000000e+00       1.284359371272e-11       1.783626878517e-12      -8.002378802158e-15 
   92       3.470518860224e-10       9.011750234334e-14      -2.535631572846e-12       0.000000000000e+00       1.248809066223e-11       1.743098682111e-12      -7.966143592143e-15 
   93       3.512589736567e-10       9.224893406164e-14      -2.625527809191e-12       0.000000000000e+00       1.214391031032e-11       1.703712255711e-12      -7.919161670044e-15 
   94       3.554964683476e-10       9.437411680845e-14      -2.715994467984e-12       0.000000000000e+00       1.181089072019e-11       1.665458712730e-12      -7.861644716488e-15 
   95       3.597646217151e-10       9.649116424202e-14      -2.806967458259e-12       0.000000000000e+00       1.148909202641e-11       1.628356703742e-12      -7.794749325777e-15 
   96       3.640635252310e-10       9.859816120776e-14      -2.898381401442e-12       0.000000000000e+00       1.117847503567e-11       1.592414592322e-12      -7.719754017793e-15 
   97       3.683931027997e-10       1.006931642032e-13      -2.990169650939e-12       0.000000000000e+00       1.087889742512e-11       1.557630045449e-12      -7.638062515613e-15 
   98       3.727531033392e-10       1.027742018430e-13      -3.082264311720e-12       0.000000000000e+00       1.059010994057e-11       1.523989623918e-12      -7.551207023109e-15 
   99       3.771430933620e-10       1.048392753236e-13      -3.174596259909e-12       0.000000000000e+00       1.031175259483e-11       1.491468372741e-12      -7.460851502558e-15 
  100       3.815624495558e-10       1.068863588884e-13      -3.267095162373e-12       0.000000000000e+00       1.004335086594e-11       1.460029411560e-12      -7.368794952250e-15 
  101       3.860103513648e-10       1.089134002928e-13      -3.359689496308e-12       0.000000000000e+00       9.784311895449e-12       1.429623525048e-12      -7.276974684094e-15 
  102       3.904857735701e-10       1.109183212689e-13      -3.452306568828e-12       0.000000000000e+00       9.533920686720e-12       1.400188753318e-12      -7.187469601225e-15 
  103       3.949874788709e-10       1.128990179903e-13      -3.544872536554e-12       0.000000000000e+00       9.291336303169e-12       1.371649982333e-12      -7.102503475613e-15 
  104       3.995142741740e-10       1.148534126181e-13      -3.637312990501e-12       0.000000000000e+00       9.055782128504e-12       1.343936084787e-12      -7.023961255491e-15 
  105       4.040658348703e-10       1.167796148659e-13      -3.729554758542e-12       0.000000000000e+00       8.827154106519e-12       1.317034862029e-12      -6.951856513954e-15 
  106       4.086419785929e-10       1.186757832281e-13      -3.821524384084e-12       0.000000000000e+00       8.605487960625e-12       1.290944794949e-12      -6.885662121642e-15 
  107       4.132424069854e-10       1.205400768622e-13      -3.913147607998e-12       0.000000000000e+00       8.390770820014e-12       1.265657942138e-12      -6.824776681139e-15 
