# Rescaled matter transfer functions [-T_i(k)/k^2] for adiabatic (AD) mode (normalized to initial curvature=1) at redshift z=99
# for k=1.00899e-05 to 200.404 h/Mpc,
# number of wavenumbers equal to 797
# T_i   stands for (delta rho_i/rho_i)(k,z) with above normalization 
# The rescaling factor [-1/k^2] with k in 1/Mpc is here to match the CMBFAST/CAMB output convention
#
#
#    1:k (h/Mpc)              2:-T_cdm/k2              3:-T_b/k2                4:-T_g/k2                5:-T_ur/k2               6:-T_ncdm/k2             7:-T_tot/k2          
       1.008985870589e-05       2.425138640709e+05       2.425138556359e+05       3.233504363221e+05       3.233502733486e+05       0.000000000000e+00       2.448565706229e+05 
       2.251315038780e-05       2.425136286355e+05       2.425135866413e+05       3.233446223700e+05       3.233438110145e+05       0.000000000000e+00       2.448561604817e+05 
       3.497711552607e-05       2.425131773166e+05       2.425130759519e+05       3.233342906290e+05       3.233323322751e+05       0.000000000000e+00       2.448553997592e+05 
       4.751294379687e-05       2.425125316167e+05       2.425123445738e+05       3.233193885994e+05       3.233157751325e+05       0.000000000000e+00       2.448543076212e+05 
       6.015230526950e-05       2.425116735328e+05       2.425113737453e+05       3.232997676908e+05       3.232939764304e+05       0.000000000000e+00       2.448528619868e+05 
       7.292761315928e-05       2.425106041434e+05       2.425101634932e+05       3.232752593530e+05       3.232667476540e+05       0.000000000000e+00       2.448510586140e+05 
       8.587229442275e-05       2.425093107306e+05       2.425086997596e+05       3.232456282301e+05       3.232338278435e+05       0.000000000000e+00       2.448488778156e+05 
       9.902107156134e-05       2.425077814907e+05       2.425069690952e+05       3.232105877846e+05       3.231948988794e+05       0.000000000000e+00       2.448462991893e+05 
       1.124102590266e-04       2.425060020327e+05       2.425049551004e+05       3.231697910345e+05       3.231495753914e+05       0.000000000000e+00       2.448432979300e+05 
       1.260780776503e-04       2.425039532060e+05       2.425026362123e+05       3.231228214654e+05       3.230973950946e+05       0.000000000000e+00       2.448398424440e+05 
       1.400649905364e-04       2.425016131520e+05       2.424999877427e+05       3.230691884239e+05       3.230378134068e+05       0.000000000000e+00       2.448358961963e+05 
       1.544140638297e-04       2.424989572390e+05       2.424969817583e+05       3.230083181459e+05       3.229701934214e+05       0.000000000000e+00       2.448314173662e+05 
       1.691713556719e-04       2.424959559754e+05       2.424935848576e+05       3.229395406118e+05       3.228937913969e+05       0.000000000000e+00       2.448263564019e+05 
       1.843863364392e-04       2.424925754604e+05       2.424897586948e+05       3.228620772997e+05       3.228077434429e+05       0.000000000000e+00       2.448206561020e+05 
       2.001123429508e-04       2.424887761555e+05       2.424854584550e+05       3.227750250651e+05       3.227110471925e+05       0.000000000000e+00       2.448142498829e+05 
       2.164070686664e-04       2.424845115080e+05       2.424806315244e+05       3.226773366650e+05       3.226025406644e+05       0.000000000000e+00       2.448070598648e+05 
       2.333330908519e-04       2.424797289694e+05       2.424752183659e+05       3.225678010169e+05       3.224808802212e+05       0.000000000000e+00       2.447989972383e+05 
       2.509584341338e-04       2.424743667187e+05       2.424691489322e+05       3.224450154904e+05       3.223445097640e+05       0.000000000000e+00       2.447899581942e+05 
       2.693571676253e-04       2.424683533432e+05       2.424623425614e+05       3.223073557947e+05       3.221916282146e+05       0.000000000000e+00       2.447798227460e+05 
       2.886100296644e-04       2.424616063626e+05       2.424547057480e+05       3.221529423183e+05       3.220201508735e+05       0.000000000000e+00       2.447684521422e+05 
       3.088050699157e-04       2.424540296599e+05       2.424461295867e+05       3.219795977713e+05       3.218276634628e+05       0.000000000000e+00       2.447556851039e+05 
       3.300382928713e-04       2.424455123397e+05       2.424364886974e+05       3.217847994139e+05       3.216113703533e+05       0.000000000000e+00       2.447413352944e+05 
       3.524142793491e-04       2.424359254092e+05       2.424256368637e+05       3.215656267108e+05       3.213680341648e+05       0.000000000000e+00       2.447251863181e+05 
       3.760467531986e-04       2.424251195915e+05       2.424134051690e+05       3.213186959008e+05       3.210939068367e+05       0.000000000000e+00       2.447069877106e+05 
       4.010590489279e-04       2.424129216138e+05       2.423995973376e+05       3.210400929524e+05       3.207846535923e+05       0.000000000000e+00       2.446864491345e+05 
       4.275844224802e-04       2.423991309862e+05       2.423839863574e+05       3.207252936376e+05       3.204352660272e+05       0.000000000000e+00       2.446632348265e+05 
       4.557661323873e-04       2.423835160135e+05       2.423663098658e+05       3.203690791156e+05       3.200399694635e+05       0.000000000000e+00       2.446369570820e+05 
       4.857572031478e-04       2.423658093878e+05       2.423462649834e+05       3.199654453191e+05       3.195921229328e+05       0.000000000000e+00       2.446071691161e+05 
       5.177197688885e-04       2.423457038501e+05       2.423235033444e+05       3.195075077033e+05       3.190841168934e+05       0.000000000000e+00       2.445733579073e+05 
       5.518238862787e-04       2.423228475954e+05       2.422976272267e+05       3.189874068058e+05       3.185072724487e+05       0.000000000000e+00       2.445349370385e+05 
       5.882457055603e-04       2.422968397376e+05       2.422681825695e+05       3.183962243003e+05       3.178517496115e+05       0.000000000000e+00       2.444912393781e+05 
       6.271649027702e-04       2.422672266207e+05       2.422346529349e+05       3.177239205939e+05       3.171064730164e+05       0.000000000000e+00       2.444415111741e+05 
       6.687613103773e-04       2.422334988263e+05       2.421964637523e+05       3.169592651402e+05       3.162590857529e+05       0.000000000000e+00       2.443849085620e+05 
       7.132107422216e-04       2.421950893027e+05       2.421529700297e+05       3.160898558883e+05       3.152959477015e+05       0.000000000000e+00       2.443204943991e+05 
       7.606800931851e-04       2.421513739674e+05       2.421034658248e+05       3.151021386313e+05       3.142021871712e+05       0.000000000000e+00       2.442472412081e+05 
       8.113219001189e-04       2.421016739952e+05       2.420471806238e+05       3.139815204026e+05       3.129618243727e+05       0.000000000000e+00       2.441640358617e+05 
       8.652686660505e-04       2.420452614262e+05       2.419832866076e+05       3.127125399166e+05       3.115579725168e+05       0.000000000000e+00       2.440696905950e+05 
       9.226273542794e-04       2.419813676025e+05       2.419109128606e+05       3.112791038065e+05       3.099731228328e+05       0.000000000000e+00       2.439629595438e+05 
       9.834745268089e-04       2.419091943003e+05       2.418291513230e+05       3.096648169360e+05       3.081895105664e+05       0.000000000000e+00       2.438425587218e+05 
       1.047852607621e-03       2.418279276050e+05       2.417370771432e+05       3.078533499137e+05       3.061895473484e+05       0.000000000000e+00       2.437071919472e+05 
       1.115767679970e-03       2.417367530648e+05       2.416337620660e+05       3.058288655120e+05       3.039563002040e+05       0.000000000000e+00       2.435555782560e+05 
       1.187189079911e-03       2.416348725169e+05       2.415182957300e+05       3.035764484551e+05       3.014739853173e+05       0.000000000000e+00       2.433864821676e+05 
       1.262050848026e-03       2.415215095886e+05       2.413897977294e+05       3.010824968324e+05       2.987284574726e+05       0.000000000000e+00       2.431987325780e+05 
       1.340254886192e-03       2.413950674808e+05       2.412463783787e+05       2.983338304122e+05       2.957086064926e+05       0.000000000000e+00       2.429903747754e+05 
       1.421675479984e-03       2.412557797308e+05       2.410883691133e+05       2.953220351081e+05       2.924038074642e+05       0.000000000000e+00       2.427613811149e+05 
       1.506164725124e-03       2.411030456477e+05       2.409150755848e+05       2.920395904490e+05       2.888070685438e+05       0.000000000000e+00       2.425109416815e+05 
       1.593558355216e-03       2.409363386364e+05       2.407258850958e+05       2.884814215929e+05       2.849142556958e+05       0.000000000000e+00       2.422383954733e+05 
       1.683681503499e-03       2.407552105378e+05       2.405202762235e+05       2.846449632855e+05       2.807241665723e+05       0.000000000000e+00       2.419432374297e+05 
       1.776354022962e-03       2.405592902119e+05       2.402978098254e+05       2.805301756998e+05       2.762385230926e+05       0.000000000000e+00       2.416251160304e+05 
       1.871395108775e-03       2.403482814662e+05       2.400581327317e+05       2.761394696675e+05       2.714618876829e+05       0.000000000000e+00       2.412838299298e+05 
       1.968627088387e-03       2.401219665181e+05       2.398009794467e+05       2.714776055574e+05       2.664015139819e+05       0.000000000000e+00       2.409193275373e+05 
       2.067878348742e-03       2.398801895675e+05       2.395261453581e+05       2.665515565021e+05       2.610671823900e+05       0.000000000000e+00       2.405316851201e+05 
       2.168985447312e-03       2.396228633083e+05       2.392335205603e+05       2.613703014844e+05       2.554709734740e+05       0.000000000000e+00       2.401211112550e+05 
       2.271794502225e-03       2.393499540992e+05       2.389230328649e+05       2.559447085477e+05       2.496270574567e+05       0.000000000000e+00       2.396879212061e+05 
       2.376161980488e-03       2.390614830399e+05       2.385946821525e+05       2.502872957338e+05       2.435514509942e+05       0.000000000000e+00       2.392325363024e+05 
       2.481955008035e-03       2.387575190607e+05       2.382485184784e+05       2.444120688066e+05       2.372617870293e+05       0.000000000000e+00       2.387554693298e+05 
       2.589051317719e-03       2.384381709112e+05       2.378846427480e+05       2.383343207959e+05       2.307770873937e+05       0.000000000000e+00       2.382573120095e+05 
       2.697338936790e-03       2.381035871642e+05       2.375031901986e+05       2.320704840398e+05       2.241175336751e+05       0.000000000000e+00       2.377387271158e+05 
       2.806715698050e-03       2.377539437836e+05       2.371043249299e+05       2.256379412159e+05       2.173042608804e+05       0.000000000000e+00       2.372004318331e+05 
       2.917088641569e-03       2.373894560697e+05       2.366882624738e+05       2.190548589513e+05       2.103591311975e+05       0.000000000000e+00       2.366432055196e+05 
       3.028373358023e-03       2.370103553441e+05       2.362552437787e+05       2.123400218914e+05       2.033045590479e+05       0.000000000000e+00       2.360678617208e+05 
       3.140493311229e-03       2.366169066450e+05       2.358055064932e+05       2.055127633098e+05       1.961633008672e+05       0.000000000000e+00       2.354752542673e+05 
       3.253379166472e-03       2.362093841716e+05       2.353393575118e+05       1.985926779845e+05       1.889582970955e+05       0.000000000000e+00       2.348662621335e+05 
       3.366968142561e-03       2.357880911407e+05       2.348570764429e+05       1.915996568714e+05       1.817124820928e+05       0.000000000000e+00       2.342417884891e+05 
       3.481203398983e-03       2.353533344394e+05       2.343590075341e+05       1.845535945780e+05       1.744486444700e+05       0.000000000000e+00       2.336027481325e+05 
       3.596033464646e-03       2.349054543008e+05       2.338454703006e+05       1.774744369120e+05       1.671892488231e+05       0.000000000000e+00       2.329500760134e+05 
       3.711411711222e-03       2.344447757369e+05       2.333168255731e+05       1.703818983732e+05       1.599563349149e+05       0.000000000000e+00       2.322846923268e+05 
       3.827295871646e-03       2.339716579540e+05       2.327734085412e+05       1.632955218414e+05       1.527713422454e+05       0.000000000000e+00       2.316075308723e+05 
       3.943647602717e-03       2.334864589641e+05       2.322156100060e+05       1.562344190393e+05       1.456550147997e+05       0.000000000000e+00       2.309195177270e+05 
       4.060432089691e-03       2.329895499448e+05       2.316437972596e+05       1.492172953287e+05       1.386272780048e+05       0.000000000000e+00       2.302215692408e+05 
       4.177617690163e-03       2.324812849045e+05       2.310583787519e+05       1.422622376287e+05       1.317071541208e+05       0.000000000000e+00       2.295145731033e+05 
       4.295175614210e-03       2.319620754142e+05       2.304597318320e+05       1.353868247602e+05       1.249126194567e+05       0.000000000000e+00       2.287994376541e+05 
       4.413079637694e-03       2.314322752218e+05       2.298482222470e+05       1.286078397305e+05       1.182605968322e+05       0.000000000000e+00       2.280769963452e+05 
       4.531305845636e-03       2.308922653780e+05       2.292242735225e+05       1.219412872996e+05       1.117668240488e+05       0.000000000000e+00       2.273480866306e+05 
       4.649832402731e-03       2.303424592610e+05       2.285883027791e+05       1.154023754766e+05       1.054457932169e+05       0.000000000000e+00       2.266135427656e+05 
       4.768639348232e-03       2.297832104016e+05       2.279406786473e+05       1.090053724057e+05       9.931074892600e+04       0.000000000000e+00       2.258741118225e+05 
       4.887708412658e-03       2.292149334574e+05       2.272818335859e+05       1.027636256225e+05       9.337357921067e+04       0.000000000000e+00       2.251305688160e+05 
       5.007022853979e-03       2.286379968804e+05       2.266121595070e+05       9.668945875587e+04       8.764484016061e+04       0.000000000000e+00       2.243836114744e+05 
       5.126567311187e-03       2.280527743969e+05       2.259320136220e+05       9.079416569083e+04       8.213370554534e+04       0.000000000000e+00       2.236339022493e+05 
       5.246327673323e-03       2.274596694761e+05       2.252418325682e+05       8.508801033224e+04       7.684794952270e+04       0.000000000000e+00       2.228821061731e+05 
       5.366290962267e-03       2.268590279341e+05       2.245420061857e+05       7.958012099028e+04       7.179397522925e+04       0.000000000000e+00       2.221287983290e+05 
       5.486445227771e-03       2.262512745908e+05       2.238329382946e+05       7.427857051752e+04       6.697677603666e+04       0.000000000000e+00       2.213745853532e+05 
       5.606779453367e-03       2.256367326802e+05       2.231149901141e+05       6.919025665147e+04       6.240000999161e+04       0.000000000000e+00       2.206199486991e+05 
       5.727283471950e-03       2.250157926862e+05       2.223885694267e+05       6.432098632535e+04       5.806597249301e+04       0.000000000000e+00       2.198653969871e+05 
       5.847947889969e-03       2.243887828603e+05       2.216540584404e+05       5.967542091532e+04       5.397566588701e+04       0.000000000000e+00       2.191113493122e+05 
       5.968764019274e-03       2.237560936348e+05       2.209117827806e+05       5.525715903627e+04       5.012881540337e+04       0.000000000000e+00       2.183582328577e+05 
       6.089723815788e-03       2.231179849695e+05       2.201621166276e+05       5.106862642943e+04       4.652394791129e+04       0.000000000000e+00       2.176063423911e+05 
       6.210819824242e-03       2.224748781993e+05       2.194054177559e+05       4.711125019621e+04       4.315840286813e+04       0.000000000000e+00       2.168560698314e+05 
       6.332045128346e-03       2.218271762958e+05       2.186421665233e+05       4.338537581842e+04       4.002842977766e+04       0.000000000000e+00       2.161077803128e+05 
       6.453393305777e-03       2.211750300841e+05       2.178725038834e+05       3.989028939807e+04       3.712927190408e+04       0.000000000000e+00       2.153615501344e+05 
       6.574858387503e-03       2.205188365336e+05       2.170968841937e+05       3.662433926733e+04       3.445518250271e+04       0.000000000000e+00       2.146176775429e+05 
       6.696434820962e-03       2.198588964524e+05       2.163155613778e+05       3.358491929822e+04       3.199954413740e+04       0.000000000000e+00       2.138763241023e+05 
       6.818117436700e-03       2.191954444001e+05       2.155288698667e+05       3.076850913960e+04       2.975493107460e+04       0.000000000000e+00       2.131375852266e+05 
       6.939901418110e-03       2.185288888727e+05       2.147372082802e+05       2.817077212625e+04       2.771320105019e+04       0.000000000000e+00       2.124016852371e+05 
       7.061782273950e-03       2.178593982214e+05       2.139407070861e+05       2.578653363425e+04       2.586557247660e+04       0.000000000000e+00       2.116685888689e+05 
       7.183755813359e-03       2.171872790930e+05       2.131397491027e+05       2.360990389276e+04       2.420271353416e+04       0.000000000000e+00       2.109383945728e+05 
       7.305818123115e-03       2.165127865855e+05       2.123346378534e+05       2.163430382713e+04       2.271482889187e+04       0.000000000000e+00       2.102111290155e+05 
       7.427965546914e-03       2.158362021115e+05       2.115256444305e+05       1.985253163832e+04       2.139175092143e+04       0.000000000000e+00       2.094868199608e+05 
       7.550194666473e-03       2.151577315788e+05       2.107130506066e+05       1.825682654467e+04       2.022301345139e+04       0.000000000000e+00       2.087654224940e+05 
       7.672502284270e-03       2.144775656327e+05       2.098968932387e+05       1.683890310802e+04       1.919794475641e+04       0.000000000000e+00       2.080468288090e+05 
       7.794885407769e-03       2.137959588735e+05       2.090776093485e+05       1.559009093752e+04       1.830575442278e+04       0.000000000000e+00       2.073310388489e+05 
       7.917341234986e-03       2.131131397783e+05       2.082554359565e+05       1.450133104914e+04       1.753561115080e+04       0.000000000000e+00       2.066179923015e+05 
       8.039867141273e-03       2.124293053906e+05       2.074306464551e+05       1.356326918719e+04       1.687671325880e+04       0.000000000000e+00       2.059076044436e+05 
       8.162460667189e-03       2.117445819143e+05       2.066032579107e+05       1.276628345205e+04       1.631835841952e+04       0.000000000000e+00       2.051996887573e+05 
       8.285119507386e-03       2.110592547332e+05       2.057735889153e+05       1.210060381936e+04       1.585004967491e+04       0.000000000000e+00       2.044942359007e+05 
       8.407841500385e-03       2.103734454225e+05       2.049418257983e+05       1.155636290937e+04       1.546150838341e+04       0.000000000000e+00       2.037910834223e+05 
       8.530624619186e-03       2.096873075857e+05       2.041081876020e+05       1.112363561808e+04       1.514276534463e+04       0.000000000000e+00       2.030901027567e+05 
       8.653466962623e-03       2.090009845161e+05       2.032728465969e+05       1.079250440901e+04       1.488421028599e+04       0.000000000000e+00       2.023911538898e+05 
       8.776366747401e-03       2.083146235454e+05       2.024358222096e+05       1.055310187932e+04       1.467664812583e+04       0.000000000000e+00       2.016940814725e+05 
