# dimensionless total lensed [l(l+1)/2pi] C_l's
# for l=2 to 2500, i.e. number of multipoles equal to 2499
#
# -> if you prefer output in CAMB/HealPix/LensPix units/order, set 'format' to 'camb' in input file
# -> if you don't want to see such a header, set 'headers' to 'no' in input file
# -> for CMB lensing (phi), these are C_l^phi-phi for the lensing potential.
#    Remember the conversion factors:
#    C_l^dd (deflection) = l(l+1) C_l^phi-phi
#    C_l^gg (shear/convergence) = 1/4 (l(l+1))^2 C_l^phi-phi
#
# 1:l     2:TT                     3:EE                     4:TE                     5:BB                     6:phiphi                 7:TPhi                   8:Ephi               
    2       1.513706451399e-10       4.794286631849e-15       3.799639093020e-13       2.253219267005e-19       8.309507263954e-09       5.059559019551e-10      -2.012705961250e-12 
    3       1.417668754422e-10       6.054905823794e-15       4.281470462188e-13       4.507438002533e-19       5.130180586116e-09       3.573371943950e-10      -1.512279342125e-12 
    4       1.331080590989e-10       5.149385608721e-15       3.998422936629e-13       7.514596723779e-19       3.573680256073e-09       2.696016134199e-10      -9.768492123124e-13 
    5       1.266721604434e-10       3.373787600418e-15       3.392157837925e-13       1.127597026873e-18       2.668944410289e-09       2.123293972128e-10      -5.310688251222e-13 
    6       1.222231760126e-10       1.857002615395e-15       2.716409939334e-13       1.579310391094e-18       2.084843331768e-09       1.723474946596e-10      -2.072811132762e-13 
    7       1.192738560166e-10       9.996093223743e-16       2.117876742424e-13       2.106778340666e-18       1.680763071737e-09       1.431018220961e-10      -5.100262476190e-15 
    8       1.174656808241e-10       6.514841203106e-16       1.659827600328e-13       2.710200117579e-18       1.387303661702e-09       1.209850830126e-10       9.390131280959e-14 
    9       1.165001500117e-10       5.245329476125e-16       1.355036161878e-13       3.389791964570e-18       1.166795377341e-09       1.038464999183e-10       1.170705182691e-13 
   10       1.161294592040e-10       4.432703353171e-16       1.187447989202e-13       4.145783285814e-18       9.967087749735e-10       9.028587379562e-11       9.395007553530e-14 
   11       1.162571825063e-10       3.700661124727e-16       1.126695661697e-13       4.978412747084e-18       8.433100112534e-10       7.969085766957e-11       5.144597014948e-14 
   12       1.167373955730e-10       3.232524570500e-16       1.138527086420e-13       5.887924427671e-18       7.367732631635e-10       7.044076193568e-11       8.499902064189e-15 
   13       1.175005557846e-10       3.113840370367e-16       1.193254196210e-13       6.874564131594e-18       6.493164535926e-10       6.289771905140e-11      -2.257925951129e-14 
   14       1.184740133830e-10       3.232325159644e-16       1.269085137417e-13       7.938575957056e-18       5.765519217353e-10       5.631106945381e-11      -3.808483758959e-14 
   15       1.196554674590e-10       3.467787354294e-16       1.351855499910e-13       9.080199211241e-18       5.153035365957e-10       5.077422076298e-11      -3.912189328919e-14 
   16       1.209852193337e-10       3.814267382919e-16       1.435526527483e-13       1.029966574270e-17       4.632290303178e-10       4.602417078286e-11      -3.059335006568e-14 
   17       1.224531246803e-10       4.338064266517e-16       1.519111950794e-13       1.159719774645e-17       4.185589057043e-10       4.189586672469e-11      -1.835912928087e-14 
   18       1.240110168330e-10       5.088543254554e-16       1.605009482056e-13       1.297300586966e-17       3.797897658153e-10       3.827330573501e-11      -7.625566657528e-15 
   19       1.256704288181e-10       6.063250082220e-16       1.695623602661e-13       1.442728909445e-17       3.463031949317e-10       3.511674191299e-11      -8.588017081325e-16 
   20       1.274102256543e-10       7.236732570304e-16       1.792752600583e-13       1.596023179002e-17       3.168114718149e-10       3.233226410415e-11       6.144806849162e-16 
   21       1.292365963978e-10       8.602946964393e-16       1.895928809128e-13       1.757200678413e-17       2.908513614400e-10       2.986851735154e-11      -2.207669332085e-15 
   22       1.311310282370e-10       1.015839933783e-15       2.002930466945e-13       1.926277211207e-17       2.678009491664e-10       2.764906914396e-11      -7.115662732463e-15 
   23       1.330915608902e-10       1.190076011528e-15       2.109361245842e-13       2.103267561662e-17       2.473433635204e-10       2.565122406936e-11      -1.224113809749e-14 
   24       1.351011764658e-10       1.382725847651e-15       2.209789133016e-13       2.288185164334e-17       2.290060594447e-10       2.384725535106e-11      -1.575988190117e-14 
   25       1.371707495404e-10       1.594334531692e-15       2.301505414136e-13       2.481042741704e-17       2.125733009953e-10       2.222966496946e-11      -1.704086124221e-14 
   26       1.393008615074e-10       1.825912334206e-15       2.382754265614e-13       2.681851905512e-17       1.977475175889e-10       2.077883070774e-11      -1.603192690257e-14 
   27       1.414773185322e-10       2.079515829714e-15       2.452858812910e-13       2.890623761614e-17       1.843507443779e-10       1.946641406178e-11      -1.354555917548e-14 
   28       1.436732824030e-10       2.357516279963e-15       2.511763492652e-13       3.107368638642e-17       1.721519326643e-10       1.825441222173e-11      -1.073999331970e-14 
   29       1.458989214603e-10       2.661360324156e-15       2.560123355889e-13       3.332097036445e-17       1.610887158226e-10       1.714166998126e-11      -8.251033452443e-15 
   30       1.481652494578e-10       2.992192048645e-15       2.599172541763e-13       3.564818858231e-17       1.510422495523e-10       1.612999522723e-11      -6.645342925476e-15 
   31       1.504722646664e-10       3.351085148275e-15       2.630163158206e-13       3.805543406554e-17       1.418075578783e-10       1.521161634359e-11      -6.413680006032e-15 
   32       1.528223604928e-10       3.738957864008e-15       2.652538184972e-13       4.054280524971e-17       1.333368732292e-10       1.437608950619e-11      -7.275434017545e-15 
   33       1.552090913613e-10       4.156611623857e-15       2.665061973824e-13       4.311039883597e-17       1.255702107297e-10       1.360401202703e-11      -8.597003880564e-15 
   34       1.576191842952e-10       4.604801119681e-15       2.666320962183e-13       4.575830831896e-17       1.183987969826e-10       1.287235680271e-11      -9.698720038788e-15 
   35       1.600570737038e-10       5.084433254880e-15       2.654892714253e-13       4.848662884554e-17       1.117858669135e-10       1.218305620969e-11      -1.034746800325e-14 
   36       1.625271847180e-10       5.596429643102e-15       2.629208920799e-13       5.129545435934e-17       1.056783164610e-10       1.154359147385e-11      -1.042979319848e-14 
   37       1.650289515619e-10       6.141657174347e-15       2.587834850941e-13       5.418487540426e-17       9.999660254830e-11       1.095829345601e-11      -9.880008375895e-15 
   38       1.675648381581e-10       6.720881016135e-15       2.530631597304e-13       5.715497524880e-17       9.472599885036e-11       1.042528009831e-11      -8.879932712959e-15 
   39       1.701337374996e-10       7.334789142842e-15       2.457984767550e-13       6.020583273394e-17       8.984973933684e-11       9.937951163712e-12      -7.729987105771e-15 
   40       1.727279866693e-10       7.983999177009e-15       2.370511319363e-13       6.333752345846e-17       8.532126097722e-11       9.485356014337e-12      -6.801558936881e-15 
   41       1.753376962986e-10       8.669101139294e-15       2.268830349794e-13       6.655011601493e-17       8.108041232977e-11       9.055494985289e-12      -6.434626182731e-15 
   42       1.779670075731e-10       9.390813207938e-15       2.152752042831e-13       6.984365895098e-17       7.711467211561e-11       8.647364439543e-12      -6.579660504972e-15 
   43       1.806220256625e-10       1.014986912180e-14       2.021848279127e-13       7.321818975494e-17       7.341348548105e-11       8.262238766909e-12      -7.046774562268e-15 
   44       1.833059861819e-10       1.094697411396e-14       1.875670408726e-13       7.667373821716e-17       6.994989494474e-11       7.900254673508e-12      -7.599796519316e-15 
   45       1.860199571828e-10       1.178276706350e-14       1.713754207093e-13       8.021032188497e-17       6.669015923509e-11       7.560689668226e-12      -8.012302730980e-15 
   46       1.887659317644e-10       1.265769640237e-14       1.535642984003e-13       8.382793117445e-17       6.362911531596e-11       7.243136285412e-12      -8.262342420770e-15 
   47       1.915441284808e-10       1.357210498406e-14       1.340866710073e-13       8.752653954267e-17       6.076316756012e-11       6.946506039309e-12      -8.391127244229e-15 
   48       1.943518096652e-10       1.452626019115e-14       1.128932669396e-13       9.130610709262e-17       5.807962247461e-11       6.668602123241e-12      -8.449782873346e-15 
   49       1.971830273691e-10       1.552035057812e-14       8.993231559058e-14       9.516658016462e-17       5.555601237454e-11       6.406039675043e-12      -8.499916260472e-15 
   50       2.000313803786e-10       1.655451381694e-14       6.515567701566e-14       9.910789092966e-17       5.316685463224e-11       6.155229631764e-12      -8.600172595444e-15 
   51       2.028997569301e-10       1.762893726595e-14       3.853972690660e-14       1.031299569870e-16       5.090766146118e-11       5.915830111487e-12      -8.760288350937e-15 
   52       2.057927973849e-10       1.874377889598e-14       1.006974240998e-14       1.072326809511e-16       4.877627824516e-11       5.688094043997e-12      -8.975547006121e-15 
   53       2.087140045907e-10       1.989913653359e-14      -2.026589514329e-14       1.114159500415e-16       4.676569889679e-11       5.471858482768e-12      -9.239609449705e-15 
   54       2.116656315184e-10       2.109504597689e-14      -5.247563130546e-14       1.156796356744e-16       4.486373944069e-11       5.266514921657e-12      -9.544421935298e-15 
   55       2.146489870154e-10       2.233149337352e-14      -8.656527305153e-14       1.200236027613e-16       4.305674978450e-11       5.071270300387e-12      -9.879775981358e-15 
   56       2.176656994250e-10       2.360846027221e-14      -1.225399058191e-13       1.244477412463e-16       4.134257661088e-11       4.886073951633e-12      -1.023207090780e-14 
   57       2.207165700648e-10       2.492588646256e-14      -1.604023319615e-13       1.289519416881e-16       3.972024900156e-11       4.710868934844e-12      -1.058508266348e-14 
   58       2.238010886313e-10       2.628365539375e-14      -2.001524645684e-13       1.335360862096e-16       3.818605698456e-11       4.545303564394e-12      -1.092018164136e-14 
   59       2.269173371272e-10       2.768159284595e-14      -2.417872820453e-13       1.382000484670e-16       3.673338244945e-11       4.388713051811e-12      -1.121622707318e-14 
   60       2.300618937892e-10       2.911946560174e-14      -2.853007826923e-13       1.429436936205e-16       3.535253006249e-11       4.240101148004e-12      -1.144946142429e-14 
   61       2.332312909207e-10       3.059692959957e-14      -3.306847992847e-13       1.477668955767e-16       3.403341586662e-11       4.098412759195e-12      -1.159908972188e-14 
   62       2.364269881193e-10       3.211336380054e-14      -3.779317592286e-13       1.526695933092e-16       3.277472080737e-11       3.963464831254e-12      -1.166571988041e-14 
   63       2.396513499416e-10       3.366799650397e-14      -4.270324661711e-13       1.576517471840e-16       3.157650112062e-11       3.835192787064e-12      -1.165689294387e-14 
   64       2.429061446584e-10       3.525994970139e-14      -4.779752768958e-13       1.627133233089e-16       3.043743509081e-11       3.713369046036e-12      -1.158183668928e-14 
   65       2.461924974864e-10       3.688823614508e-14      -5.307460831892e-13       1.678542940516e-16       2.935474463835e-11       3.597593898712e-12      -1.145154040012e-14 
   66       2.495108438196e-10       3.855175641660e-14      -5.853282937071e-13       1.730746385571e-16       2.832411690699e-11       3.487286381369e-12      -1.127882963972e-14 
   67       2.528608824612e-10       4.024929599535e-14      -6.417028158412e-13       1.783743432660e-16       2.733962585125e-11       3.381675150616e-12      -1.107844102465e-14 
   68       2.562421169922e-10       4.197963392001e-14      -6.998480304794e-13       1.837534101271e-16       2.639531251382e-11       3.280000981944e-12      -1.086447677433e-14 
   69       2.596557118001e-10       4.374190089315e-14      -7.597397508813e-13       1.892118820107e-16       2.549047296311e-11       3.182192310019e-12      -1.064200228982e-14 
   70       2.631029298421e-10       4.553528880520e-14      -8.213512228555e-13       1.947498233986e-16       2.462530589028e-11       3.088310806302e-12      -1.041387252687e-14 
   71       2.665845466247e-10       4.735894548572e-14      -8.846531131421e-13       2.003673138467e-16       2.379931337730e-11       2.998348219930e-12      -1.018320919959e-14 
   72       2.701008184770e-10       4.921197462593e-14      -9.496134910974e-13       2.060644486994e-16       2.301126490603e-11       2.912222664694e-12      -9.953408540506e-15 
   73       2.736514508248e-10       5.109343570130e-14      -1.016197810378e-12       2.118413398041e-16       2.225916136737e-11       2.829774906021e-12      -9.728149060507e-15 
   74       2.772355664633e-10       5.300234389413e-14      -1.084368890628e-12       2.176981162261e-16       2.154019907042e-11       2.750764647950e-12      -9.511399308892e-15 
   75       2.808516738309e-10       5.493767001610e-14      -1.154086899160e-12       2.236349249631e-16       2.085073375155e-11       2.674866820112e-12      -9.307425633365e-15 
   76       2.844983240756e-10       5.689829503861e-14      -1.225310882305e-12       2.296519220072e-16       2.018718372264e-11       2.601756097542e-12      -9.120029216251e-15 
   77       2.881762907178e-10       5.888286428240e-14      -1.298003722334e-12       2.357492420705e-16       1.954900901080e-11       2.531386461487e-12      -8.950079405475e-15 
   78       2.918867316650e-10       6.088990637447e-14      -1.372128055375e-12       2.419270246110e-16       1.893621261497e-11       2.463756108902e-12      -8.797542583145e-15 
   79       2.956305183632e-10       6.291787528962e-14      -1.447644815192e-12       2.481854235047e-16       1.834843309929e-11       2.398821869247e-12      -8.662205070842e-15 
   80       2.994082181936e-10       6.496514934216e-14      -1.524513246642e-12       2.545246075612e-16       1.778492786008e-11       2.336497300753e-12      -8.543665085314e-15 
   81       3.032200768710e-10       6.703003017775e-14      -1.602690919135e-12       2.609447610415e-16       1.724455639272e-11       2.276650786691e-12      -8.441324694170e-15 
   82       3.070660008411e-10       6.911074176509e-14      -1.682133740104e-12       2.674460841736e-16       1.672576355863e-11       2.219103631627e-12      -8.354381771569e-15 
   83       3.109455396781e-10       7.120542938775e-14      -1.762795968457e-12       2.740287936699e-16       1.622656285219e-11       2.163628157696e-12      -8.281821953914e-15 
   84       3.148581812394e-10       7.331221960486e-14      -1.844629614286e-12       2.806931201418e-16       1.574501822144e-11       2.110002793579e-12      -8.222379574712e-15 
   85       3.188043319066e-10       7.542941376294e-14      -1.927582494137e-12       2.874392987183e-16       1.528081795885e-11       2.058192004664e-12      -8.174430649027e-15 
   86       3.227844673298e-10       7.755532486485e-14      -2.011599876529e-12       2.942675778126e-16       1.483393226218e-11       2.008192839782e-12      -8.136067316793e-15 
   87       3.267988219558e-10       7.968821946936e-14      -2.096625070145e-12       3.011782225429e-16       1.440412964846e-11       1.959979658656e-12      -8.105118846862e-15 
   88       3.308473766817e-10       8.182631770757e-14      -2.182599426978e-12       3.081715151973e-16       1.399096859995e-11       1.913503186030e-12      -8.079143071341e-15 
   89       3.349298465096e-10       8.396779329938e-14      -2.269462345484e-12       3.152477556983e-16       1.359378921013e-11       1.868689565793e-12      -8.055417819928e-15 
   90       3.390456682000e-10       8.611077356995e-14      -2.357151273721e-12       3.224072620675e-16       1.321170482974e-11       1.825439415103e-12      -8.030932354242e-15 
   91       3.431939879263e-10       8.825333946617e-14      -2.445601712500e-12       3.296503708898e-16       1.284359371272e-11       1.783626878517e-12      -8.002378802158e-15 
   92       3.473736489287e-10       9.039352557309e-14      -2.534747218533e-12       3.369774377781e-16       1.248809066223e-11       1.743098682111e-12      -7.966143592143e-15 
   93       3.515835377052e-10       9.252935333808e-14      -2.624520619780e-12       3.443888482537e-16       1.214391031032e-11       1.703712255711e-12      -7.919161670044e-15 
   94       3.558237089592e-10       9.465893642354e-14      -2.714857863771e-12       3.518850512494e-16       1.181089072019e-11       1.665458712730e-12      -7.861644716488e-15 
   95       3.600944078050e-10       9.678039130339e-14      -2.805694756585e-12       3.594665315278e-16       1.148909202641e-11       1.628356703742e-12      -7.794749325777e-15 
   96       3.643957189816e-10       9.889180593319e-14      -2.896965821737e-12       3.671338003133e-16       1.117847503567e-11       1.592414592322e-12      -7.719754017793e-15 
   97       3.687275594280e-10       1.009912402224e-13      -2.988604319961e-12       3.748873959004e-16       1.087889742512e-11       1.557630045449e-12      -7.638062515613e-15 
   98       3.730896708593e-10       1.030767265067e-13      -3.080542269004e-12       3.827278842606e-16       1.059010994057e-11       1.523989623918e-12      -7.551207023109e-15 
   99       3.774816123422e-10       1.051462700203e-13      -3.172710463403e-12       3.906558596504e-16       1.031175259483e-11       1.491468372741e-12      -7.460851502558e-15 
  100       3.819027528705e-10       1.071978493682e-13      -3.265038494278e-12       3.986719452185e-16       1.004335086594e-11       1.460029411560e-12      -7.368794952250e-15 
  101       3.863522639410e-10       1.092294169984e-13      -3.357454769115e-12       4.067767936132e-16       9.784311895449e-12       1.429623525048e-12      -7.276974684094e-15 
  102       3.908291121288e-10       1.112388996744e-13      -3.449886531554e-12       4.149710875906e-16       9.533920686720e-12       1.400188753318e-12      -7.187469601225e-15 
  103       3.953320516636e-10       1.132241989473e-13      -3.542259881175e-12       4.232555406214e-16       9.291336303169e-12       1.371649982333e-12      -7.102503475613e-15 
  104       3.998598814443e-10       1.151832427735e-13      -3.634500357137e-12       4.316308740814e-16       9.055782128504e-12       1.343936084787e-12      -7.023961255491e-15 
  105       4.044122716172e-10       1.171141472915e-13      -3.726534736265e-12       4.400977440047e-16       8.827154106519e-12       1.317034862029e-12      -6.951856513954e-15 
  106       4.089890353351e-10       1.190150778809e-13      -3.818289515881e-12       4.486568055227e-16       8.605487960625e-12       1.290944794949e-12      -6.885662121642e-15 
  107       4.135898698253e-10       1.208842009904e-13      -3.909690397301e-12       4.573087357432e-16       8.390770820014e-12       1.265657942138e-12      -6.824776681139e-15 
