# Matter power spectrum P(k) at redshift z=99
# for k=1.00899e-05 to 203.102 h/Mpc,
# number of wavenumbers equal to 845
#    1:k (h/Mpc)              2:P (Mpc/h)^3        
       1.008985923246e-05       4.868198852067e-03 
       2.251775554681e-05       3.993260483364e-02 
       3.498636120247e-05       4.131497474504e-02 
       4.752690064658e-05       4.678325985514e-02 
       6.017107953230e-05       5.236023173785e-02 
       7.295134796122e-05       6.148044016660e-02 
       8.590117158737e-05       6.929617052738e-02 
       9.905531395762e-05       7.683707861614e-02 
       1.124501334903e-04       8.670027390854e-02 
       1.261238985241e-04       9.661878343947e-02 
       1.401171238832e-04       1.067412622258e-01 
       1.544729323814e-04       1.179910175808e-01 
       1.692374445844e-04       1.285068149352e-01 
       1.844601999316e-04       1.399753999155e-01 
       2.001946119095e-04       1.512310447676e-01 
       2.164984592990e-04       1.635550339525e-01 
       2.334344144703e-04       1.759458176563e-01 
       2.510706081373e-04       1.879864451857e-01 
       2.694812277303e-04       2.012322719276e-01 
       2.887471433953e-04       2.151226017953e-01 
       3.089565513139e-04       2.294851170137e-01 
       3.302056182976e-04       2.445082682004e-01 
       3.525991041420e-04       2.604187801854e-01 
       3.762509287930e-04       2.771428319647e-01 
       4.012846398372e-04       2.948546805331e-01 
       4.278337222871e-04       3.135459032934e-01 
       4.560416775835e-04       3.332976248873e-01 
       4.860617833145e-04       3.543227264664e-01 
       5.180564313506e-04       3.765791476806e-01 
       5.521959330390e-04       4.004356460919e-01 
       5.886566801031e-04       4.256876619788e-01 
       6.276185643138e-04       4.525972719453e-01 
       6.692615934693e-04       4.813039133998e-01 
       7.137617003222e-04       5.118020349406e-01 
       7.612858261435e-04       5.442785948673e-01 
       8.119864671933e-04       5.788160894697e-01 
       8.659959882004e-04       6.154287977384e-01 
       9.234211115549e-04       6.541718279256e-01 
       9.843380583383e-04       6.951351301780e-01 
       1.048788822492e-03       7.382623944172e-01 
       1.116778986862e-03       7.835183073667e-01 
       1.188277341593e-03       8.309064307399e-01 
       1.263217364035e-03       8.803010933628e-01 
       1.341500403710e-03       9.316109954558e-01 
       1.423000229794e-03       9.846853422520e-01 
       1.507568477172e-03       1.039493520937e+00 
       1.595040487038e-03       1.095779384179e+00 
       1.685241074673e-03       1.153420219774e+00 
       1.777989849548e-03       1.212279498424e+00 
       1.873105833077e-03       1.272195833414e+00 
       1.970411240942e-03       1.333009335216e+00 
       2.069734400901e-03       1.394567654926e+00 
       2.170911853969e-03       1.456748100800e+00 
       2.273789735124e-03       1.519419313630e+00 
       2.378224553043e-03       1.582437014346e+00 
       2.484083492891e-03       1.645711404289e+00 
       2.591244358339e-03       1.709116146038e+00 
       2.699595254278e-03       1.772560420952e+00 
       2.809034094327e-03       1.835951957220e+00 
       2.919467999818e-03       1.899209901843e+00 
       3.030812641171e-03       1.962261556614e+00 
       3.142991559080e-03       2.025024706685e+00 
       3.255935491967e-03       2.087443424580e+00 
       3.369581727509e-03       2.149461574938e+00 
       3.483873489548e-03       2.211022350079e+00 
       3.598759366763e-03       2.272076054816e+00 
       3.714192786088e-03       2.332582442326e+00 
       3.830131531369e-03       2.392502290805e+00 
       3.946537306183e-03       2.451793980378e+00 
       4.063375338686e-03       2.510432894365e+00 
       4.180614025754e-03       2.568383153710e+00 
       4.298224613405e-03       2.625624038823e+00 
       4.416180910359e-03       2.682130327027e+00 
       4.534459031676e-03       2.737879755888e+00 
       4.653037169509e-03       2.792857072474e+00 
       4.771895388214e-03       2.847045639585e+00 
       4.891015441268e-03       2.900431747654e+00 
       5.010380607654e-03       2.953003073095e+00 
       5.129975545600e-03       3.004749535705e+00 
       5.249786161774e-03       3.055664574030e+00 
       5.369799494223e-03       3.105740564336e+00 
       5.490003607537e-03       3.154972875058e+00 
       5.610387498875e-03       3.203355904901e+00 
       5.730941013670e-03       3.250890766020e+00 
       5.851654769906e-03       3.297575885667e+00 
       5.972520090068e-03       3.343408983812e+00 
       6.093528939880e-03       3.388392552832e+00 
       6.214673873133e-03       3.432528293815e+00 
       6.335947981903e-03       3.475821167292e+00 
       6.457344851613e-03       3.518271964846e+00 
       6.578858520406e-03       3.559885190330e+00 
       6.700483442374e-03       3.600665466795e+00 
       6.822214454238e-03       3.640621398623e+00 
       6.944046745134e-03       3.679755043338e+00 
       7.065975829162e-03       3.718078028508e+00 
       7.187997520434e-03       3.755598082393e+00 
       7.310107910369e-03       3.792318729184e+00 
       7.432303346994e-03       3.828244746138e+00 
       7.554580416073e-03       3.863390874771e+00 
       7.676935923868e-03       3.897767207434e+00 
       7.799366881390e-03       3.931375599424e+00 
       7.921870489981e-03       3.964222673646e+00 
       8.044444128110e-03       3.996330227131e+00 
       8.167085339271e-03       4.027695819572e+00 
       8.289791820870e-03       4.058333681641e+00 
       8.412561414027e-03       4.088255881710e+00 
       8.535392094189e-03       4.117461233225e+00 
       8.658281962499e-03       4.145967911031e+00 
       8.781229237845e-03       4.173781673225e+00 
       8.904232249532e-03       4.200913797000e+00 
       9.027289430517e-03       4.227371447654e+00 
       9.150399311170e-03       4.253162058167e+00 
       9.273560513504e-03       4.278302443048e+00 
       9.396771745844e-03       4.302791610445e+00 
       9.520031797891e-03       4.326643566056e+00 
       9.643339536152e-03       4.349864714005e+00 
       9.766693899711e-03       4.372460995791e+00 
       9.890093896300e-03       4.394446133589e+00 
       1.001353859866e-02       4.415828376444e+00 
       1.013702714118e-02       4.436617036593e+00 
       1.026055871672e-02       4.456810099283e+00 
       1.038413257374e-02       4.476423433810e+00 
       1.050774801356e-02       4.495465647598e+00 
       1.063140438788e-02       4.513936806045e+00 
       1.075510109639e-02       4.531853519627e+00 
       1.087883758462e-02       4.549219264928e+00 
       1.100261334193e-02       4.566037642475e+00 
       1.112642789957e-02       4.582321359379e+00 
       1.125028082899e-02       4.598070702099e+00 
       1.137417174014e-02       4.613302587078e+00 
       1.149810028000e-02       4.628008051239e+00 
       1.162206613114e-02       4.642209240658e+00 
       1.174606901039e-02       4.655899715118e+00 
       1.187010866765e-02       4.669096015179e+00 
       1.199418488471e-02       4.681801306881e+00 
       1.211829747421e-02       4.694017144323e+00 
       1.224244627863e-02       4.705753461016e+00 
       1.236663116941e-02       4.717017048695e+00 
       1.249085204607e-02       4.727811920456e+00 
       1.261510883545e-02       4.738139952494e+00 
       1.273940149094e-02       4.748017570807e+00 
       1.286372999182e-02       4.757441323615e+00 
       1.298809434267e-02       4.766417050577e+00 
       1.311249457272e-02       4.774952796516e+00 
       1.323693073542e-02       4.783054066517e+00 
       1.336140290784e-02       4.790722810928e+00 
       1.348591119034e-02       4.797973466080e+00 
       1.361045570605e-02       4.804801316627e+00 
       1.373503660061e-02       4.811213197922e+00 
       1.385965404174e-02       4.817218598892e+00 
       1.398430821901e-02       4.822820016086e+00 
       1.410899934352e-02       4.828020604544e+00 
       1.423372764771e-02       4.832832109821e+00 
       1.435849338511e-02       4.837253602601e+00 
       1.448329683018e-02       4.841292906774e+00 
       1.460813827812e-02       4.844953410164e+00 
       1.473301804481e-02       4.848239792065e+00 
       1.485793646664e-02       4.851156916493e+00 
       1.498289390044e-02       4.853712951617e+00 
       1.510789072347e-02       4.855909774454e+00 
       1.523292733332e-02       4.857753880829e+00 
       1.535800414793e-02       4.859247427027e+00 
       1.548312160558e-02       4.860394740700e+00 
       1.560828016494e-02       4.861207124973e+00 
       1.573348030509e-02       4.861677543266e+00 
       1.585872252561e-02       4.861831350902e+00 
       1.598400734663e-02       4.861650392830e+00 
       1.610933530897e-02       4.861150866243e+00 
       1.623470697422e-02       4.860333410384e+00 
       1.636012292492e-02       4.859213102117e+00 
       1.648558376469e-02       4.857775607241e+00 
       1.661109011841e-02       4.856037637874e+00 
       1.673664263240e-02       4.854004589513e+00 
       1.686224197463e-02       4.851675912677e+00 
       1.698788883495e-02       4.849054801174e+00 
       1.711358392534e-02       4.846158184237e+00 
       1.723932798012e-02       4.842966368821e+00 
       1.736512175629e-02       4.839521403827e+00 
       1.749096603375e-02       4.835787090718e+00 
       1.761686161566e-02       4.831793160881e+00 
       1.774280932873e-02       4.827525144383e+00 
       1.786881002356e-02       4.823006384734e+00 
       1.799486457501e-02       4.818232432160e+00 
       1.812097388257e-02       4.813204765495e+00 
       1.824713887072e-02       4.807933376015e+00 
       1.837336048938e-02       4.802414261482e+00 
       1.849963971429e-02       4.796656939727e+00 
       1.862597754748e-02       4.790663233664e+00 
       1.875237501771e-02       4.784441720204e+00 
       1.887883318094e-02       4.777979618840e+00 
       1.900535312085e-02       4.771316597308e+00 
       1.913193594933e-02       4.764426138507e+00 
       1.925858280700e-02       4.757310232844e+00 
       1.938529486380e-02       4.749986136673e+00 
       1.951207331950e-02       4.742448322345e+00 
       1.963891940434e-02       4.734710772335e+00 
       1.976583437961e-02       4.726768672760e+00 
       1.989281953829e-02       4.718632452728e+00 
       2.001987620571e-02       4.710299054625e+00 
       2.014700574018e-02       4.701778949094e+00 
       2.027420953374e-02       4.693055102994e+00 
       2.040148901283e-02       4.684170909684e+00 
       2.052884563906e-02       4.675092252901e+00 
       2.065628090997e-02       4.665836480530e+00 
       2.078379635978e-02       4.656404859707e+00 
       2.091139356027e-02       4.646808507182e+00 
       2.103907412157e-02       4.637037392185e+00 
       2.116683969302e-02       4.627109759374e+00 
       2.129469196411e-02       4.617020149541e+00 
       2.142263266535e-02       4.606771853396e+00 
       2.155066356926e-02       4.596369377490e+00 
       2.167878649131e-02       4.585809051348e+00 
       2.180700329099e-02       4.575098661696e+00 
       2.193531587278e-02       4.564249386550e+00 
       2.206372618728e-02       4.553261355679e+00 
       2.219223623229e-02       4.542123910354e+00 
       2.232084805397e-02       4.530864895181e+00 
       2.244956374803e-02       4.519457689491e+00 
       2.257838546090e-02       4.507926438434e+00 
       2.270731539105e-02       4.496268096555e+00 
       2.283635579024e-02       4.484481239799e+00 
       2.296550896486e-02       4.472575878541e+00 
       2.309477727734e-02       4.460555640841e+00 
       2.322416314755e-02       4.448416077841e+00 
       2.335366905427e-02       4.436159962343e+00 
       2.348329753672e-02       4.423797257655e+00 
       2.361305119611e-02       4.411327697946e+00 
       2.374293269725e-02       4.398750820354e+00 
       2.387294477028e-02       4.386072360010e+00 
       2.400309021230e-02       4.373293979489e+00 
       2.413337188923e-02       4.360414800025e+00 
       2.426379273761e-02       4.347447413953e+00 
       2.439435576651e-02       4.334384794713e+00 
       2.452506405949e-02       4.321232230880e+00 
       2.465592077667e-02       4.307992928993e+00 
       2.478692915676e-02       4.294669560987e+00 
       2.491809251927e-02       4.281261888019e+00 
       2.504941426679e-02       4.267775652032e+00 
       2.518089788722e-02       4.254213535014e+00 
       2.531254695627e-02       4.240581109810e+00 
       2.544436513988e-02       4.226863724527e+00 
       2.557635619681e-02       4.213082817092e+00 
       2.570852398133e-02       4.199230646013e+00 
       2.584087244594e-02       4.185313118723e+00 
       2.597340564424e-02       4.171334865058e+00 
       2.610612773389e-02       4.157294406978e+00 
       2.623904297966e-02       4.143189832721e+00 
       2.637215575665e-02       4.129031244486e+00 
       2.650547055353e-02       4.114816167250e+00 
       2.663899197597e-02       4.100548263530e+00 
       2.677272475021e-02       4.086228776514e+00 
       2.690667372668e-02       4.071859147029e+00 
       2.704084388387e-02       4.057442842661e+00 
       2.717524033223e-02       4.042980118125e+00 
       2.730986831833e-02       4.028473008549e+00 
       2.744473322907e-02       4.013924658859e+00 
       2.757984059617e-02       3.999337122132e+00 
       2.771519610072e-02       3.984709320781e+00 
       2.785080557800e-02       3.970045652713e+00 
       2.798667502244e-02       3.955347392833e+00 
       2.812281059279e-02       3.940615888699e+00 
       2.825921861753e-02       3.925852495229e+00 
       2.839590560043e-02       3.911059181677e+00 
       2.853287822642e-02       3.896237475869e+00 
       2.867014336763e-02       3.881388983515e+00 
       2.880770808975e-02       3.866515533062e+00 
       2.894557965859e-02       3.851618262737e+00 
       2.908376554696e-02       3.836698246725e+00 
       2.922227344183e-02       3.821759109056e+00 
       2.936111125182e-02       3.806799945763e+00 
       2.950028711498e-02       3.791821540385e+00 
       2.963980940692e-02       3.776826936531e+00 
       2.977968674934e-02       3.761817233623e+00 
       2.991992801888e-02       3.746793749680e+00 
       3.006054235642e-02       3.731758764723e+00 
       3.020153917674e-02       3.716709296159e+00 
       3.034292817872e-02       3.701652219656e+00 
       3.048471935591e-02       3.686584804230e+00 
       3.062692300766e-02       3.671511701762e+00 
       3.076954975073e-02       3.656428636685e+00 
       3.091261053153e-02       3.641341097857e+00 
       3.105611663883e-02       3.626249384986e+00 
       3.120007971717e-02       3.611153532614e+00 
       3.134451178094e-02       3.596056380908e+00 
       3.148942522908e-02       3.580956399616e+00 
       3.163483286058e-02       3.565855019750e+00 
       3.178074789075e-02       3.550754826372e+00 
       3.192718396829e-02       3.535655139149e+00 
       3.207415519325e-02       3.520558889068e+00 
       3.222167613596e-02       3.505463864636e+00 
       3.236976185693e-02       3.490371891366e+00 
       3.251842792776e-02       3.475285550543e+00 
       3.266769045326e-02       3.460203134452e+00 
       3.281756609471e-02       3.445127821580e+00 
       3.296807209441e-02       3.430057806717e+00 
       3.311922630162e-02       3.414995732342e+00 
       3.327104719986e-02       3.399938848581e+00 
       3.342355393590e-02       3.384892251465e+00 
       3.357676635028e-02       3.369853658038e+00 
       3.373070500968e-02       3.354821940557e+00 
       3.388539124115e-02       3.339801864640e+00 
       3.404084716838e-02       3.324790192304e+00 
       3.419709575014e-02       3.309790889461e+00 
       3.435416082110e-02       3.294801055618e+00 
       3.451206713503e-02       3.279823320758e+00 
       3.467084041087e-02       3.264855872689e+00 
       3.483050738153e-02       3.249899076919e+00 
       3.499109584590e-02       3.234953899018e+00 
       3.515263472420e-02       3.220022973262e+00 
       3.531515411689e-02       3.205102206409e+00 
       3.547868536756e-02       3.190192885484e+00 
       3.564326112997e-02       3.175296556142e+00 
       3.580891543966e-02       3.160412020938e+00 
       3.597568379052e-02       3.145541243496e+00 
       3.614360321665e-02       3.130680454012e+00 
       3.631271238005e-02       3.115830699369e+00 
       3.648305166451e-02       3.100994519984e+00 
       3.665466327647e-02       3.086170518140e+00 
       3.682759135313e-02       3.071356216282e+00 
       3.700188207881e-02       3.056551408290e+00 
       3.717758380999e-02       3.041757389556e+00 
       3.735474721006e-02       3.026974525351e+00 
       3.753342539455e-02       3.012203705085e+00 
       3.771367408789e-02       2.997437535607e+00 
       3.789555179276e-02       2.982681701668e+00 
       3.807911997330e-02       2.967933165488e+00 
       3.826444325354e-02       2.953193581070e+00 
       3.845158963247e-02       2.938457850396e+00 
       3.864063071773e-02       2.923730576508e+00 
       3.883164197941e-02       2.909007273751e+00 
       3.902470302655e-02       2.894286125564e+00 
       3.921989790844e-02       2.879569581371e+00 
       3.941731544346e-02       2.864852947005e+00 
       3.961704957874e-02       2.850136950506e+00 
       3.981919978381e-02       2.835420673033e+00 
       4.002387148228e-02       2.820702806830e+00 
       4.023117652610e-02       2.805980439647e+00 
       4.044123371716e-02       2.791253402303e+00 
       4.065416938230e-02       2.776517969291e+00 
       4.087011800810e-02       2.761775970904e+00 
       4.108922294299e-02       2.747023640476e+00 
       4.131163717545e-02       2.732257131042e+00 
       4.153752419801e-02       2.717475368024e+00 
       4.176705896879e-02       2.702678701891e+00 
       4.200042898355e-02       2.687859982737e+00 
       4.223783547389e-02       2.673018514737e+00 
       4.247949474925e-02       2.658155992871e+00 
       4.272563970381e-02       2.643262455950e+00 
       4.297652151252e-02       2.628335919404e+00 
       4.323241154501e-02       2.613375697546e+00 
       4.349360353122e-02       2.598378409209e+00 
       4.376041601845e-02       2.583336289251e+00 
       4.403319516735e-02       2.568247108445e+00 
       4.431231794305e-02       2.553106226594e+00 
       4.459819576870e-02       2.537910351413e+00 
       4.489127872208e-02       2.522649487349e+00 
       4.519206037240e-02       2.507321129688e+00 
       4.550108337449e-02       2.491913334781e+00 
       4.581894596305e-02       2.476428020433e+00 
       4.614630952020e-02       2.460850138160e+00 
       4.648390742907e-02       2.445168665854e+00 
       4.683255547441e-02       2.429380668279e+00 
       4.719316411280e-02       2.413478301563e+00 
       4.756675301229e-02       2.397444177000e+00 
       4.795446835950e-02       2.381271491186e+00 
       4.835760355679e-02       2.364952521582e+00 
       4.877762409092e-02       2.348433520471e+00 
       4.921619755703e-02       2.331701626160e+00 
       4.967523007970e-02       2.314753457351e+00 
       5.015691069999e-02       2.297546798814e+00 
       5.066376571099e-02       2.280063925094e+00 
       5.119872543759e-02       2.262254491543e+00 
       5.176520658204e-02       2.244079666001e+00 
       5.236721398511e-02       2.225482871889e+00 
       5.300946643626e-02       2.206389480232e+00 
       5.369755186298e-02       2.186716022928e+00 
       5.443811750858e-02       2.166351712273e+00 
       5.523909986108e-02       2.145151344133e+00 
       5.610999569786e-02       2.122930733805e+00 
       5.706216693470e-02       2.099441340600e+00 
       5.810915311482e-02       2.074351144705e+00 
