# dimensionless total [l(l+1)/2pi] C_l's
# for l=2 to 3000, i.e. number of multipoles equal to 2999
#
# -> if you prefer output in CAMB/HealPix/LensPix units/order, set 'format' to 'camb' in input file
# -> if you don't want to see such a header, set 'headers' to 'no' in input file
# -> for CMB lensing (phi), these are C_l^phi-phi for the lensing potential.
#    Remember the conversion factors:
#    C_l^dd (deflection) = l(l+1) C_l^phi-phi
#    C_l^gg (shear/convergence) = 1/4 (l(l+1))^2 C_l^phi-phi
#
# 1:l     2:TT                     3:EE                     4:TE                     5:BB                     6:phiphi                 7:TPhi                   8:Ephi               
    2       1.513639978333e-10       4.793943841364e-15       3.799573658431e-13       0.000000000000e+00       8.308942876178e-09       5.059120056935e-10      -2.012660722438e-12 
    3       1.417609368229e-10       6.054180406169e-15       4.281353583747e-13       0.000000000000e+00       5.129810946141e-09       3.573068535846e-10      -1.512219564845e-12 
    4       1.331013716170e-10       5.148228125147e-15       3.998173041737e-13       0.000000000000e+00       3.573417261226e-09       2.695801804626e-10      -9.767929537150e-13 
    5       1.266638950520e-10       3.372209244368e-15       3.391758038695e-13       0.000000000000e+00       2.668747406323e-09       2.123135679213e-10      -5.310289256482e-13 
    6       1.222130753334e-10       1.854983720894e-15       2.715876673139e-13       0.000000000000e+00       2.084690161078e-09       1.723353191702e-10      -2.072587792126e-13 
    7       1.192620392620e-10       9.970943550144e-16       2.117228283204e-13       0.000000000000e+00       1.680640914088e-09       1.430922884328e-10      -5.088532831353e-15 
    8       1.174520067656e-10       6.484109428935e-16       1.659074287244e-13       0.000000000000e+00       1.387203997983e-09       1.209775422343e-10       9.390974155482e-14 
    9       1.164844190953e-10       5.208353898112e-16       1.354183951667e-13       0.000000000000e+00       1.166712005832e-09       1.038403502352e-10       1.170790352211e-13 
   10       1.161118273418e-10       4.388709393886e-16       1.186542431240e-13       0.000000000000e+00       9.966376761158e-10       9.028061421268e-11       9.395906035298e-14 
   11       1.162378883444e-10       3.648796385921e-16       1.125832625231e-13       0.000000000000e+00       8.432483792939e-10       7.968609189943e-11       5.145242990835e-14 
   12       1.167167501765e-10       3.171925176858e-16       1.137795014781e-13       0.000000000000e+00       7.367193621467e-10       7.043648902928e-11       8.506019868671e-15 
   13       1.174786758008e-10       3.043663876435e-16       1.192691957642e-13       0.000000000000e+00       6.492687313838e-10       6.289390727158e-11      -2.257337378947e-14 
   14       1.184507657118e-10       3.151755209222e-16       1.268687755765e-13       0.000000000000e+00       5.765094416411e-10       5.630756446127e-11      -3.807927209548e-14 
   15       1.196306301045e-10       3.376026821327e-16       1.351598634105e-13       0.000000000000e+00       5.152653998638e-10       5.077098306295e-11      -3.911729648576e-14 
   16       1.209586867913e-10       3.710521840486e-16       1.435384933318e-13       0.000000000000e+00       4.631945506080e-10       4.602125606347e-11      -3.059003944280e-14 
   17       1.224246321294e-10       4.221529332091e-16       1.519063514854e-13       0.000000000000e+00       4.185276071744e-10       4.189325682355e-11      -1.835710481345e-14 
   18       1.239804517555e-10       4.958416085581e-16       1.605039870604e-13       0.000000000000e+00       3.797612429857e-10       3.827089434375e-11      -7.624538284400e-15 
   19       1.256376662312e-10       5.918717354361e-16       1.695721520413e-13       0.000000000000e+00       3.462770747170e-10       3.511448461543e-11      -8.584051377036e-16 
   20       1.273750516760e-10       7.076968648237e-16       1.792909721144e-13       0.000000000000e+00       3.167874759800e-10       3.233022281012e-11       6.145681323475e-16 
   21       1.291988541608e-10       8.427128453001e-16       1.896139891712e-13       0.000000000000e+00       2.908292520309e-10       2.986670324390e-11      -2.207642041939e-15 
   22       1.310906639347e-10       9.965711895050e-16       2.003194190462e-13       0.000000000000e+00       2.677805397561e-10       2.764739908313e-11      -7.115555299933e-15 
   23       1.330484986026e-10       1.169039004115e-15       2.109678492153e-13       0.000000000000e+00       2.473244822564e-10       2.564963961417e-11      -1.224089562746e-14 
   24       1.350552819170e-10       1.359839087129e-15       2.210162597407e-13       0.000000000000e+00       2.289885551863e-10       2.384576359613e-11      -1.575953696417e-14 
   25       1.371218895885e-10       1.569516304936e-15       2.301938151569e-13       0.000000000000e+00       2.125570342814e-10       2.222828930231e-11      -1.704050123768e-14 
   26       1.392489257893e-10       1.799080901882e-15       2.383249556594e-13       0.000000000000e+00       1.977323699186e-10       2.077759170379e-11      -1.603166856919e-14 
   27       1.414222104063e-10       2.050590229455e-15       2.453421467097e-13       0.000000000000e+00       1.843366107481e-10       1.946530952238e-11      -1.354545443966e-14 
   28       1.436149160940e-10       2.326416501581e-15       2.512400053071e-13       0.000000000000e+00       1.721387257511e-10       1.825341159391e-11      -1.074000051080e-14 
   29       1.458372097331e-10       2.628006071421e-15       2.560839946790e-13       0.000000000000e+00       1.610763517416e-10       1.714073409949e-11      -8.251085733959e-15 
   30       1.481000995322e-10       2.956502260336e-15       2.599973954017e-13       0.000000000000e+00       1.510306512941e-10       1.612908328645e-11      -6.645369866003e-15 
   31       1.504035787147e-10       3.312978219921e-15       2.631053021464e-13       0.000000000000e+00       1.417966619950e-10       1.521069292417e-11      -6.413616202895e-15 
   32       1.527500402043e-10       3.698353239910e-15       2.653521189325e-13       0.000000000000e+00       1.333266207682e-10       1.437515020472e-11      -7.275250346442e-15 
   33       1.551330401651e-10       4.113430569951e-15       2.666144847360e-13       0.000000000000e+00       1.255605493654e-10       1.360309861903e-11      -8.596726039075e-15 
   34       1.575393099852e-10       4.558966754039e-15       2.667512318710e-13       0.000000000000e+00       1.183896846783e-10       1.287155104335e-11      -9.698424215505e-15 
   35       1.599732955912e-10       5.035869119312e-15       2.656200690115e-13       0.000000000000e+00       1.117772643826e-10       1.218241332270e-11      -1.034721392554e-14 
   36       1.624394382497e-10       5.545059223769e-15       2.630640230199e-13       0.000000000000e+00       1.056701876506e-10       1.154311204202e-11      -1.042959731889e-14 
   37       1.649371877674e-10       6.087403951874e-15       2.589394833609e-13       0.000000000000e+00       9.998891655100e-11       1.095792448401e-11      -9.879843313533e-15 
   38       1.674690085041e-10       6.663669049184e-15       2.532325765953e-13       0.000000000000e+00       9.471872538374e-11       1.042496479371e-11      -8.879762895768e-15 
   39       1.700337885776e-10       7.274543291938e-15       2.459819346606e-13       0.000000000000e+00       8.984284895116e-11       9.937645896729e-12      -7.729779836838e-15 
   40       1.726238586749e-10       7.920645189504e-15       2.372493395316e-13       0.000000000000e+00       8.531472723119e-11       9.485034619931e-12      -6.801285914173e-15 
   41       1.752293244987e-10       8.602565897354e-15       2.270967632523e-13       0.000000000000e+00       8.107421282569e-11       9.055149757675e-12      -6.434265560503e-15 
   42       1.778543341159e-10       9.321025521771e-15       2.155051283230e-13       0.000000000000e+00       7.710878520361e-11       8.646995184534e-12      -6.579200516422e-15 
   43       1.805050042635e-10       1.007676016051e-14       2.024314610044e-13       0.000000000000e+00       7.340789020808e-11       8.261850415928e-12      -7.046216282320e-15 
   44       1.831845841456e-10       1.087047770582e-14       1.878307030282e-13       0.000000000000e+00       6.994457231389e-11       7.899858223187e-12      -7.599156385825e-15 
   45       1.858941541509e-10       1.170281972103e-14       1.716562409872e-13       0.000000000000e+00       6.668509275711e-11       7.560301295254e-12      -8.011610941856e-15 
   46       1.886357071864e-10       1.257423639041e-14       1.538623347101e-13       0.000000000000e+00       6.362428894809e-11       7.242770213471e-12      -8.261627151351e-15 
   47       1.914094571998e-10       1.348507208275e-14       1.344019446089e-13       0.000000000000e+00       6.075856564786e-11       6.946171874956e-12      -8.390409048674e-15 
   48       1.942126605365e-10       1.443559572112e-14       1.132257647802e-13       0.000000000000e+00       5.807523048692e-11       6.668303852253e-12      -8.449072885231e-15 
   49       1.970393618058e-10       1.542599742299e-14       9.028199295620e-14       0.000000000000e+00       5.555181769321e-11       6.405774602936e-12      -8.499214290757e-15 
   50       1.998831534340e-10       1.645641639460e-14       6.552244894255e-14       0.000000000000e+00       5.316284678198e-11       6.154988937158e-12      -8.599468144930e-15 
   51       2.027469269674e-10       1.752704133503e-14       3.892342154132e-14       0.000000000000e+00       5.090383035742e-11       5.915604883652e-12      -8.759571536936e-15 
   52       2.056353293649e-10       1.863803147801e-14       1.047008263632e-14       0.000000000000e+00       4.877261397976e-11       5.687877228330e-12      -8.974812088613e-15 
   53       2.085518710030e-10       1.978948587543e-14      -1.984929964778e-14       0.000000000000e+00       4.676219211478e-11       5.471645309859e-12      -9.238855613988e-15 
   54       2.114988133626e-10       2.098144150834e-14      -5.204329224175e-14       0.000000000000e+00       4.486038174235e-11       5.266303359045e-12      -9.543654114003e-15 
   55       2.144774731305e-10       2.221388591967e-14      -8.611783008216e-14       0.000000000000e+00       4.305353385487e-11       5.071061009510e-12      -9.879004418026e-15 
   56       2.174894802697e-10       2.348680311502e-14      -1.220781273963e-13       0.000000000000e+00       4.133949539435e-11       4.885868564428e-12      -1.023130648896e-14 
   57       2.205356357555e-10       2.480013575579e-14      -1.599271208818e-13       0.000000000000e+00       3.971729563847e-11       4.710669633012e-12      -1.058433549997e-14 
   58       2.236154285462e-10       2.615377034199e-14      -1.996648653743e-13       0.000000000000e+00       3.818322503833e-11       4.545113142077e-12      -1.091946084433e-14 
   59       2.267269394932e-10       2.754753588893e-14      -2.412884885852e-13       0.000000000000e+00       3.673066614733e-11       4.388534980801e-12      -1.121554051893e-14 
   60       2.298667452525e-10       2.898120260397e-14      -2.847921458387e-13       0.000000000000e+00       3.534992455012e-11       4.239939645480e-12      -1.144881550784e-14 
   61       2.330313767890e-10       3.045442979317e-14      -3.301678269476e-13       0.000000000000e+00       3.403091720534e-11       4.098272508543e-12      -1.159848922097e-14 
   62       2.362222948278e-10       3.196659891093e-14      -3.774080908757e-13       0.000000000000e+00       3.277232510165e-11       3.963349565369e-12      -1.166516820477e-14 
   63       2.394418657673e-10       3.351694051786e-14      -4.265038673740e-13       0.000000000000e+00       3.157420434353e-11       3.835104757173e-12      -1.165639206624e-14 
   64       2.426918597972e-10       3.510457886801e-14      -4.774436411434e-13       0.000000000000e+00       3.043523316820e-11       3.713308809063e-12      -1.158138695521e-14 
   65       2.459734041354e-10       3.672852897480e-14      -5.302134336105e-13       0.000000000000e+00       2.935263353808e-11       3.597560096090e-12      -1.145114033040e-14 
   66       2.492869362651e-10       3.838769367676e-14      -5.847967847019e-13       0.000000000000e+00       2.832209273330e-11       3.487275509292e-12      -1.127847572553e-14 
   67       2.526321571719e-10       4.008086070342e-14      -6.411747346201e-13       0.000000000000e+00       2.733768494422e-11       3.381681321744e-12      -1.107812751528e-14 
   68       2.560085735205e-10       4.180681125683e-14      -6.993258013821e-13       0.000000000000e+00       2.639345146781e-11       3.280016278772e-12      -1.086419598237e-14 
   69       2.594173562834e-10       4.356467786341e-14      -7.592259488901e-13       0.000000000000e+00       2.548868837165e-11       3.182209071612e-12      -1.064174658669e-14 
   70       2.628597764427e-10       4.535365409438e-14      -8.208485796213e-13       0.000000000000e+00       2.462359431800e-11       3.088322359849e-12      -1.041363497886e-14 
   71       2.663366182405e-10       4.717288938515e-14      -8.841645202873e-13       0.000000000000e+00       2.379767141594e-11       2.998349053404e-12      -1.018298371542e-14 
   72       2.698481474780e-10       4.902148895319e-14      -9.491420035007e-13       0.000000000000e+00       2.300968923337e-11       2.912208606313e-12      -9.953190024912e-15 
   73       2.733940798152e-10       5.089851371594e-14      -1.015746649442e-12       0.000000000000e+00       2.225764880906e-11       2.829743310500e-12      -9.727933573953e-15 
   74       2.769735490702e-10       5.280298020871e-14      -1.083941447525e-12       0.000000000000e+00       2.153874666468e-11       2.750714589553e-12      -9.511184233297e-15 
   75       2.805850755189e-10       5.473386050259e-14      -1.153686738066e-12       0.000000000000e+00       2.084933881683e-11       2.674799292499e-12      -9.307209843923e-15 
   76       2.842272211600e-10       5.669003670380e-14      -1.224941741059e-12       0.000000000000e+00       2.018584385411e-11       2.601673852433e-12      -9.119812995164e-15 
   77       2.879007635378e-10       5.867015505430e-14      -1.297669504877e-12       0.000000000000e+00       1.954772184208e-11       2.531292672721e-12      -8.949863513712e-15 
   78       2.916068625750e-10       6.067274495296e-14      -1.371832830875e-12       0.000000000000e+00       1.893497577689e-11       2.463654008259e-12      -8.797328030944e-15 
   79       2.953463914443e-10       6.269626101675e-14      -1.447392819514e-12       0.000000000000e+00       1.834724425028e-11       2.398714730509e-12      -8.661993139384e-15 
   80       2.991199189549e-10       6.473908206733e-14      -1.524308883751e-12       0.000000000000e+00       1.778378471790e-11       2.336388423013e-12      -8.543457349041e-15 
   81       3.029276919386e-10       6.679951011753e-14      -1.602538762428e-12       0.000000000000e+00       1.724345676762e-11       2.276543476912e-12      -8.441123043760e-15 
   82       3.067696176361e-10       6.887576935800e-14      -1.682038533670e-12       0.000000000000e+00       1.672470538788e-11       2.219001186460e-12      -8.354188437555e-15 
   83       3.106452460832e-10       7.096600514369e-14      -1.762762628271e-12       0.000000000000e+00       1.622554423600e-11       2.163533844535e-12      -8.281639530961e-15 
   84       3.145540657137e-10       7.306834404920e-14      -1.844663226988e-12       0.000000000000e+00       1.574403742095e-11       2.109919740433e-12      -8.222210830905e-15 
   85       3.184964850559e-10       7.518108769379e-14      -1.927688308278e-12       0.000000000000e+00       1.527987327027e-11       2.058122800725e-12      -8.174277647844e-15 
   86       3.224729822436e-10       7.730254933974e-14      -2.011783299970e-12       0.000000000000e+00       1.483302199668e-11       2.008139375737e-12      -8.135931113116e-15 
   87       3.264837941012e-10       7.943099569322e-14      -2.096891669572e-12       0.000000000000e+00       1.440325215027e-11       1.959943050940e-12      -8.104999385560e-15 
   88       3.305289037942e-10       8.156464691723e-14      -2.182954927313e-12       0.000000000000e+00       1.399012226519e-11       1.913483698811e-12      -8.079039082881e-15 
   89       3.346080284797e-10       8.370167664451e-14      -2.269912629180e-12       0.000000000000e+00       1.359297250636e-11       1.868686530687e-12      -8.055326713011e-15 
   90       3.387206069569e-10       8.584021199046e-14      -2.357702379955e-12       0.000000000000e+00       1.321091631621e-11       1.825451148620e-12      -8.030850105462e-15 
   91       3.428657873170e-10       8.797833356608e-14      -2.446259836247e-12       0.000000000000e+00       1.284283206141e-11       1.783650597235e-12      -8.002299842698e-15 
   92       3.470424145941e-10       9.011407549086e-14      -2.535518709537e-12       0.000000000000e+00       1.248735467953e-11       1.743130415583e-12      -7.966060691485e-15 
   93       3.512493780713e-10       9.224545833774e-14      -2.625411976480e-12       0.000000000000e+00       1.214319893019e-11       1.703747060995e-12      -7.919066293494e-15 
   94       3.554867397764e-10       9.437059360778e-14      -2.715875711464e-12       0.000000000000e+00       1.181020290501e-11       1.665491850614e-12      -7.861528892095e-15 
   95       3.597547536684e-10       9.648759506552e-14      -2.806845838767e-12       0.000000000000e+00       1.148842674749e-11       1.628383994394e-12      -7.794606224425e-15 
   96       3.640535137913e-10       9.859454766570e-14      -2.898256995992e-12       0.000000000000e+00       1.117783128221e-11       1.592432481799e-12      -7.719578080271e-15 
   97       3.683829468613e-10       1.006895080183e-13      -2.990042553673e-12       0.000000000000e+00       1.087827421346e-11       1.557635674124e-12      -7.637849583245e-15 
   98       3.727428048542e-10       1.027705048534e-13      -3.082134634889e-12       0.000000000000e+00       1.058950632378e-11       1.523980896791e-12      -7.550954471965e-15 
   99       3.771326575924e-10       1.048355394864e-13      -3.174464134868e-12       0.000000000000e+00       1.031116767259e-11       1.491444031668e-12      -7.460558381230e-15 
  100       3.815518853327e-10       1.068825862827e-13      -3.266960740598e-12       0.000000000000e+00       1.004278379481e-11       1.459989109371e-12      -7.368462123203e-15 
  101       3.859996713532e-10       1.089095931228e-13      -3.359552950436e-12       0.000000000000e+00       9.783761899406e-12       1.429567901577e-12      -7.276604968587e-15 
  102       3.904749945408e-10       1.109144818673e-13      -3.452168093717e-12       0.000000000000e+00       9.533387068044e-12       1.400119513329e-12      -7.187067927802e-15 
  103       3.949766219788e-10       1.128951488219e-13      -3.544732350362e-12       0.000000000000e+00       9.290818453644e-12       1.371569975346e-12      -7.102077032166e-15 
  104       3.995033639594e-10       1.148495162494e-13      -3.637171328088e-12       0.000000000000e+00       9.055279522395e-12       1.343849126882e-12      -7.023519096062e-15 
  105       4.040548942235e-10       1.167756938293e-13      -3.729411840603e-12       0.000000000000e+00       8.826666235350e-12       1.316944739757e-12      -6.951407438160e-15 
  106       4.086310272197e-10       1.186718399777e-13      -3.821380407293e-12       0.000000000000e+00       8.605014318860e-12       1.290854979676e-12      -6.885214053703e-15 
  107       4.132314610993e-10       1.205361137610e-13      -3.913002742500e-12       0.000000000000e+00       8.390310908708e-12       1.265571553516e-12      -6.824336574476e-15 
