# dimensionless total lensed [l(l+1)/2pi] C_l's
# for l=2 to 2500, i.e. number of multipoles equal to 2499
#
# -> if you prefer output in CAMB/HealPix/LensPix units/order, set 'format' to 'camb' in input file
# -> if you don't want to see such a header, set 'headers' to 'no' in input file
# -> for CMB lensing (phi), these are C_l^phi-phi for the lensing potential.
#    Remember the conversion factors:
#    C_l^dd (deflection) = l(l+1) C_l^phi-phi
#    C_l^gg (shear/convergence) = 1/4 (l(l+1))^2 C_l^phi-phi
#
# 1:l     2:TT                     3:EE                     4:TE                     5:BB                     6:phiphi                 7:TPhi                   8:Ephi               
    2       1.513662592338e-10       4.794188595087e-15       3.799578523333e-13       2.253233302962e-19       8.309219920313e-09       5.059266422228e-10      -2.012681271787e-12 
    3       1.417627108090e-10       6.054663327925e-15       4.281329240671e-13       4.507465974768e-19       5.130003817015e-09       3.573182079745e-10      -1.512238240402e-12 
    4       1.331037911492e-10       5.149027851217e-15       3.998174886736e-13       7.514643126822e-19       3.573562702836e-09       2.695890904539e-10      -9.768067742913e-13 
    5       1.266674803399e-10       3.373379025588e-15       3.391788268541e-13       1.127603947561e-18       2.668862525355e-09       2.123208495944e-10      -5.310363346016e-13 
    6       1.222179190657e-10       1.856592192861e-15       2.715913611394e-13       1.579320015221e-18       2.084784584570e-09       1.723415361047e-10      -2.072609353034e-13 
    7       1.192679724150e-10       9.992226758990e-16       2.117263960292e-13       2.106791075519e-18       1.680719995501e-09       1.430977404811e-10      -5.087597742364e-15 
    8       1.174591545323e-10       6.511394992090e-16       1.659106273529e-13       2.710216353774e-18       1.387271479723e-09       1.209823879590e-10       9.391182434447e-14 
    9       1.164929737952e-10       5.242419111282e-16       1.354210107921e-13       3.389812075823e-18       1.166770898553e-09       1.038447431695e-10       1.170809700059e-13 
   10       1.161218191428e-10       4.430323203627e-16       1.186565007965e-13       4.145807629376e-18       9.966898228228e-10       9.028468832765e-11       9.396021537339e-14 
   11       1.162495147684e-10       3.698732524907e-16       1.125852075887e-13       4.978441664825e-18       8.432950898109e-10       7.968993094753e-11       5.145270653737e-14 
   12       1.167301357265e-10       3.230967596085e-16       1.137810653983e-13       5.887958247764e-18       7.367613247682e-10       7.043995611372e-11       8.505587090478e-15 
   13       1.174939527320e-10       3.112600670076e-16       1.192702558333e-13       6.874603170721e-18       6.493067697441e-10       6.289701849087e-11      -2.257418629106e-14 
   14       1.184681151633e-10       3.231375093559e-16       1.268691620398e-13       7.938620523054e-18       5.765439768027e-10       5.631048593685e-11      -3.808018878667e-14 
   15       1.196502037467e-10       3.467116334353e-16       1.351593655720e-13       9.080249606058e-18       5.152969528432e-10       5.077373662873e-11      -3.911810666558e-14 
   16       1.209804927740e-10       3.813870761189e-16       1.435366683426e-13       1.029972226555e-17       4.632235258011e-10       4.602373742535e-11      -3.059067944199e-14 
   17       1.224488453733e-10       4.337937566372e-16       1.519028906619e-13       1.159726069703e-17       4.185542667747e-10       4.189545919232e-11      -1.835759836526e-14 
   18       1.240071213551e-10       5.088679285893e-16       1.604984565998e-13       1.297307555132e-17       3.797858320535e-10       3.827295864534e-11      -7.624986544629e-15 
   19       1.256668589538e-10       6.063636416561e-16       1.695641482930e-13       1.442736581691e-17       3.462998323421e-10       3.511646293985e-11      -8.588790356366e-16 
   20       1.274069304211e-10       7.237353299633e-16       1.792801984576e-13       1.596031587238e-17       3.168085839492e-10       3.233200812131e-11       6.140697464984e-16 
   21       1.292335355168e-10       8.603786257349e-16       1.896000405724e-13       1.757209855650e-17       2.908488680825e-10       2.986826639424e-11      -2.208162722870e-15 
   22       1.311281768159e-10       1.015944423260e-15       2.003017116547e-13       1.926287191770e-17       2.677987872922e-10       2.764885425657e-11      -7.116115228241e-15 
   23       1.330888933389e-10       1.190199849079e-15       2.109457591355e-13       2.103278381235e-17       2.473414799530e-10       2.565105329496e-11      -1.224149893068e-14 
   24       1.350986652983e-10       1.382867947103e-15       2.209891795102e-13       2.288196860057e-17       2.290044127327e-10       2.384709594182e-11      -1.576016038870e-14 
   25       1.371683759089e-10       1.594493890838e-15       2.301611695311e-13       2.481055352075e-17       2.125718558109e-10       2.222950393088e-11      -1.704109260628e-14 
   26       1.392986183509e-10       1.826088123673e-15       2.382861980969e-13       2.681865470352e-17       1.977462454286e-10       2.077868947333e-11      -1.603215746747e-14 
   27       1.414751938420e-10       2.079707489747e-15       2.452966697793e-13       2.890638321864e-17       1.843496210591e-10       1.946629939311e-11      -1.354581990596e-14 
   28       1.436712563981e-10       2.357723486406e-15       2.511871259107e-13       3.107384236201e-17       1.721509387776e-10       1.825430382026e-11      -1.074029030992e-14 
   29       1.458969792597e-10       2.661582317530e-15       2.560230538478e-13       3.332113713822e-17       1.610878338526e-10       1.714155233311e-11      -8.251361069465e-15 
   30       1.481633878015e-10       2.992427345467e-15       2.599278045382e-13       3.564836658291e-17       1.510414644182e-10       1.612987059522e-11      -6.645686209296e-15 
   31       1.504704916253e-10       3.351331635447e-15       2.630265343490e-13       3.805562372264e-17       1.418068579996e-10       1.521150410825e-11      -6.414015841584e-15 
   32       1.528206787786e-10       3.739213691704e-15       2.652635833423e-13       4.054300699035e-17       1.333362482113e-10       1.437600456122e-11      -7.275743854026e-15 
   33       1.552074918155e-10       4.156875619921e-15       2.665154719714e-13       4.311061308111e-17       1.255696513585e-10       1.360395606341e-11      -8.597279483681e-15 
   34       1.576176472647e-10       4.605072807119e-15       2.666409262360e-13       4.575853548033e-17       1.183982957539e-10       1.287231853247e-11      -9.698964316327e-15 
   35       1.600555836402e-10       5.084712145445e-15       2.654976946675e-13       4.848686932365e-17       1.117854170704e-10       1.218302477845e-11      -1.034768828112e-14 
   36       1.625257363902e-10       5.596715005250e-15       2.629289044997e-13       5.129570854031e-17       1.056779121009e-10       1.154356132399e-11      -1.042999951752e-14 
   37       1.650275498091e-10       6.141948049257e-15       2.587910430421e-13       5.418514365741e-17       9.999623887627e-11       1.095826440822e-11      -9.880212448364e-15 
   38       1.675634866767e-10       6.721176441106e-15       2.530702307167e-13       5.715525792908e-17       9.472567142770e-11       1.042525256788e-11      -8.880142278370e-15 
   39       1.701324350419e-10       7.335088236432e-15       2.458050575454e-13       6.020613018083e-17       8.984944405490e-11       9.937924686024e-12      -7.730203262092e-15 
   40       1.727267261088e-10       7.984301171396e-15       2.370572540604e-13       6.333783599331e-17       8.532099432876e-11       9.485329058000e-12      -6.801774573694e-15 
   41       1.753364656001e-10       8.669405379553e-15       2.268887603406e-13       6.655044394057e-17       8.108017151957e-11       9.055465204226e-12      -6.434826917955e-15 
   42       1.779657973474e-10       9.391119034003e-15       2.152805864557e-13       6.984400255899e-17       7.711445457270e-11       8.647330441131e-12      -6.579834354156e-15 
   43       1.806208321905e-10       1.015017583315e-14       2.021898971043e-13       7.321854932747e-17       7.341328881178e-11       8.262200838294e-12      -7.046915548848e-15 
   44       1.833048127466e-10       1.094728096590e-14       1.875717977466e-13       7.667411402665e-17       6.994971706137e-11       7.900215119309e-12      -7.599906003197e-15 
   45       1.860188133646e-10       1.178307329758e-14       1.713798390325e-13       8.021071419604e-17       6.668999840312e-11       7.560652597089e-12      -8.012388975035e-15 
   46       1.887648257099e-10       1.265800139195e-14       1.535683582322e-13       8.382834025276e-17       6.362896990669e-11       7.243105500857e-12      -8.262414058069e-15 
   47       1.915430642356e-10       1.357240829857e-14       1.340903698143e-13       8.752696565896e-17       6.076303602614e-11       6.946484292569e-12      -8.391191154499e-15 
   48       1.943507864028e-10       1.452656163078e-14       1.128966224225e-13       9.130655052487e-17       5.807950341256e-11       6.668590874377e-12      -8.449843714772e-15 
   49       1.971820385780e-10       1.552065021006e-14       8.993536865219e-14       9.516704120038e-17       5.555590459222e-11       6.406038840610e-12      -8.499975973934e-15 
   50       2.000304147467e-10       1.655481192708e-14       6.515848848513e-14       9.910836986880e-17       5.316675716496e-11       6.155237587155e-12      -8.600230441523e-15 
   51       2.028988049551e-10       1.762923402545e-14       3.854235321137e-14       1.031304541457e-16       5.090757340962e-11       5.915844569962e-12      -8.760342779728e-15 
   52       2.057918537425e-10       1.874407423850e-14       1.007222682796e-14       1.072331966651e-16       4.877619875078e-11       5.688112273756e-12      -8.975596144065e-15 
   53       2.087130689411e-10       1.989943010981e-14      -2.026352550403e-14       1.114164846694e-16       4.676562716976e-11       5.471877275901e-12      -9.239651068387e-15 
   54       2.116647093545e-10       2.109533710664e-14      -5.247336868715e-14       1.156801896008e-16       4.486367478958e-11       5.266530562268e-12      -9.544453419033e-15 
   55       2.146480888878e-10       2.233178108454e-14      -8.656312724406e-14       1.200241763975e-16       4.305669162291e-11       5.071278837504e-12      -9.879794568362e-15 
   56       2.176648347349e-10       2.360874362944e-14      -1.225378855909e-13       1.244483350220e-16       4.134252438448e-11       4.886072477053e-12      -1.023207483446e-14 
   57       2.207157450114e-10       2.492616467497e-14      -1.604004393726e-13       1.289525560499e-16       3.972020217793e-11       4.710856104238e-12      -1.058507162779e-14 
   58       2.238003056813e-10       2.628392783951e-14      -2.001506940223e-13       1.335367216219e-16       3.818601506697e-11       4.545279845520e-12      -1.092015702046e-14 
   59       2.269165944607e-10       2.768185909875e-14      -2.417856193008e-13       1.382007054139e-16       3.673334499126e-11       4.388680983802e-12      -1.121619215046e-14 
   60       2.300611847210e-10       2.911972545821e-14      -2.852992038354e-13       1.429443726069e-16       3.535249668247e-11       4.240065611740e-12      -1.144942162595e-14 
   61       2.332306045051e-10       3.059718306456e-14      -3.306832723349e-13       1.477675971255e-16       3.403338624955e-11       4.098380559713e-12      -1.159905218215e-14 
   62       2.364263136677e-10       3.211361093265e-14      -3.779302544293e-13       1.526703179459e-16       3.277469465526e-11       3.963442010767e-12      -1.166569079497e-14 
   63       2.396506784667e-10       3.366823737124e-14      -4.270309594832e-13       1.576524954308e-16       3.157647814357e-11       3.835183715326e-12      -1.165687665320e-14 
   64       2.429054692041e-10       3.526018437725e-14      -4.779737510321e-13       1.627140956830e-16       3.043741501260e-11       3.713376153921e-12      -1.158183538723e-14 
   65       2.461918134718e-10       3.688846470396e-14      -5.307445286932e-13       1.678550910632e-16       2.935472720227e-11       3.597617400697e-12      -1.145155383038e-14 
   66       2.495101493980e-10       3.855197892933e-14      -5.853267100771e-13       1.730754607074e-16       2.832410188203e-11       3.487323986909e-12      -1.127885478014e-14 
   67       2.528601788927e-10       4.024951252422e-14      -6.417012126988e-13       1.783751910451e-16       2.733961303851e-11       3.381721764431e-12      -1.107847175953e-14 
   68       2.562414083787e-10       4.197984451305e-14      -6.998464260532e-13       1.837542840126e-16       2.639530174608e-11       3.280049119523e-12      -1.086450440753e-14 
   69       2.596550027235e-10       4.374210557618e-14      -7.597381617047e-13       1.892127824697e-16       2.549046408149e-11       3.182234851912e-12      -1.064201880542e-14 
   70       2.631022246979e-10       4.553548757521e-14      -8.213496605425e-13       1.947507508870e-16       2.462529873968e-11       3.088341869761e-12      -1.041387163984e-14 
   71       2.665838495693e-10       4.735913830443e-14      -8.846515837100e-13       2.003682688072e-16       2.379930780864e-11       2.998363353503e-12      -1.018318661229e-14 
   72       2.701001333723e-10       4.921216141311e-14      -9.496119942647e-13       2.060654315597e-16       2.301126077868e-11       2.912219050297e-12      -9.953362208880e-15 
   73       2.736507811806e-10       5.109361632778e-14      -1.016196338837e-12       2.118423509752e-16       2.225915855164e-11       2.829751568483e-12      -9.728079469988e-15 
   74       2.772349153779e-10       5.300251817456e-14      -1.084367429293e-12       2.176991561002e-16       2.154019745012e-11       2.750722672040e-12      -9.511309760039e-15 
   75       2.808510439286e-10       5.493783770141e-14      -1.154085424387e-12       2.236359939114e-16       2.085073322676e-11       2.674809575038e-12      -9.307322537201e-15 
   76       2.844977174316e-10       5.689845582955e-14      -1.225309363562e-12       2.296530203840e-16       2.018718420912e-11       2.601688946645e-12      -9.119921613531e-15 
   77       2.881757087420e-10       5.888301791144e-14      -1.298002131759e-12       2.357503702341e-16       1.954901042880e-11       2.531314802598e-12      -8.949975972894e-15 
   78       2.918861750155e-10       6.089005263132e-14      -1.372126370845e-12       2.419281829315e-16       1.893621488691e-11       2.463684791793e-12      -8.797450709852e-15 
   79       2.956299868671e-10       6.291801402669e-14      -1.447643021073e-12       2.481866123646e-16       1.834843615073e-11       2.398755105182e-12      -8.662130673793e-15 
   80       2.994077107667e-10       6.496528048017e-14      -1.524511334566e-12       2.545258273577e-16       1.778493162062e-11       2.336438568809e-12      -8.543612418221e-15 
   81       3.032195914340e-10       6.703015371143e-14      -1.602688888804e-12       2.609460121871e-16       1.724456079701e-11       2.276602736838e-12      -8.441296150048e-15 
   82       3.070655342339e-10       6.911085776912e-14      -1.682131600115e-12       2.674473670986e-16       1.672576854741e-11       2.219067984590e-12      -8.354377678888e-15 
   83       3.109450875715e-10       7.120553802280e-14      -1.762793737160e-12       2.740301088238e-16       1.622656837335e-11       2.163605601570e-12      -8.281840366348e-15 
   84       3.148577383489e-10       7.331232110877e-14      -1.844627318047e-12       2.806944679937e-16       1.574502422974e-11       2.109993044143e-12      -8.222416534067e-15 
   85       3.188038931755e-10       7.542950839394e-14      -1.927580157306e-12       2.874406797562e-16       1.528082441128e-11       2.058194395047e-12      -8.174481971867e-15 
   86       3.227840283003e-10       7.755541288503e-14      -2.011597518367e-12       2.942689925435e-16       1.483393911706e-11       2.008206463005e-12      -8.136129099405e-15 
   87       3.267983788518e-10       7.968830114238e-14      -2.096622704228e-12       3.011796714945e-16       1.440413686581e-11       1.960003350644e-12      -8.105187514737e-15 
   88       3.308469264950e-10       8.182639329628e-14      -2.182597060583e-12       3.081729989194e-16       1.399097614191e-11       1.913535508185e-12      -8.079215430312e-15 
   89       3.349293870878e-10       8.396786306335e-14      -2.269459978950e-12       3.152492747642e-16       1.359379704139e-11       1.868728787144e-12      -8.055491108970e-15 
   90       3.390451983378e-10       8.611083776290e-14      -2.357148899799e-12       3.224088170754e-16       1.321171291798e-11       1.825483494031e-12      -8.031004299931e-15 
   91       3.431935074595e-10       8.825339833325e-14      -2.445599315681e-12       3.296519624645e-16       1.284360202906e-11       1.783673444046e-12      -8.002447674794e-15 
   92       3.473731588305e-10       9.039357934814e-14      -2.534744774356e-12       3.369790665726e-16       1.248809918169e-11       1.743145014779e-12      -7.966208263526e-15 
   93       3.515830399853e-10       9.252940224244e-14      -2.624518096359e-12       3.443905149441e-16       1.214391901158e-11       1.703755390236e-12      -7.919221581588e-15 
   94       3.558232059332e-10       9.465898067004e-14      -2.714855230381e-12       3.518867565084e-16       1.181089958305e-11       1.665495927937e-12      -7.861699559287e-15 
   95       3.600939019029e-10       9.678043109577e-14      -2.805691986223e-12       3.594682760163e-16       1.148910103117e-11       1.628385682957e-12      -7.794798968261e-15 
   96       3.643952127482e-10       9.889184146381e-14      -2.896962891551e-12       3.671355846788e-16       1.117848416332e-11       1.592433467961e-12      -7.719798521260e-15 
   97       3.687270555233e-10       1.009912716699e-13      -2.988601211697e-12       3.748892207750e-16       1.087890665743e-11       1.557637444861e-12      -7.638102150156e-15 
   98       3.730891720581e-10       1.030767540337e-13      -3.080538969458e-12       3.827297502590e-16       1.059011926028e-11       1.523984716473e-12      -7.551242283961e-15 
   99       3.774811215343e-10       1.051462937706e-13      -3.172706964895e-12       3.906577673677e-16       1.031176198575e-11       1.491450918177e-12      -7.460883126837e-15 
  100       3.819022730606e-10       1.071978694645e-13      -3.265034795128e-12       3.986738952283e-16       1.004336031313e-11       1.459999809572e-12      -7.368823936111e-15 
  101       3.863517982486e-10       1.092294335395e-13      -3.357450874140e-12       4.067787864655e-16       9.784321385366e-12       1.429582866131e-12      -7.277002300290e-15 
  102       3.908286637880e-10       1.112389127326e-13      -3.449882452570e-12       4.149731238095e-16       9.533930207372e-12       1.400138870865e-12      -7.187497417070e-15 
  103       3.953316240224e-10       1.132242085656e-13      -3.542255637518e-12       4.232576207027e-16       9.291345844286e-12       1.371593505974e-12      -7.102533371356e-15 
  104       3.998594778334e-10       1.151832489724e-13      -3.634495974496e-12       4.316329984971e-16       9.055791681404e-12       1.343876296739e-12      -7.023995327996e-15 
  105       4.044118948038e-10       1.171141501074e-13      -3.726530240196e-12       4.400999132278e-16       8.827163663039e-12       1.316974929454e-12      -6.951896617777e-15 
  106       4.089886873354e-10       1.190150773773e-13      -3.818284929936e-12       4.486590200339e-16       8.605497512869e-12       1.290887543945e-12      -6.885709724252e-15 
  107       4.135895518407e-10       1.208841972596e-13      -3.909685742797e-12       4.573109960321e-16       8.390780360396e-12       1.265605821541e-12      -6.824832828031e-15 
