# dimensionless total [l(l+1)/2pi] C_l's
# for l=2 to 3000, i.e. number of multipoles equal to 2999
#
# -> if you prefer output in CAMB/HealPix/LensPix units/order, set 'format' to 'camb' in input file
# -> if you don't want to see such a header, set 'headers' to 'no' in input file
# -> for CMB lensing (phi), these are C_l^phi-phi for the lensing potential.
#    Remember the conversion factors:
#    C_l^dd (deflection) = l(l+1) C_l^phi-phi
#    C_l^gg (shear/convergence) = 1/4 (l(l+1))^2 C_l^phi-phi
#
# 1:l     2:TT                     3:EE                     4:TE                     5:BB                     6:phiphi                 7:TPhi                   8:Ephi               
    2       1.513657739310e-10       4.793963271711e-15       3.799578565140e-13       0.000000000000e+00       8.309219920313e-09       5.059266422228e-10      -2.012681271787e-12 
    3       1.417617424708e-10       6.054212580882e-15       4.281329427001e-13       0.000000000000e+00       5.130003817015e-09       3.573182079745e-10      -1.512238240402e-12 
    4       1.331021822314e-10       5.148276384714e-15       3.998175422193e-13       0.000000000000e+00       3.573562702836e-09       2.695890904539e-10      -9.768067742913e-13 
    5       1.266650761572e-10       3.372251414142e-15       3.391789488542e-13       0.000000000000e+00       2.668862525355e-09       2.123208495944e-10      -5.310363346016e-13 
    6       1.222145683700e-10       1.855012852412e-15       2.715916010717e-13       0.000000000000e+00       2.084784584570e-09       1.723415361047e-10      -2.072609353034e-13 
    7       1.192635278892e-10       9.971158373211e-16       2.117268219114e-13       0.000000000000e+00       1.680719995501e-09       1.430977404811e-10      -5.087597742364e-15 
    8       1.174534731902e-10       6.484291847538e-16       1.659113280594e-13       0.000000000000e+00       1.387271479723e-09       1.209823879590e-10       9.391182434447e-14 
    9       1.164859172804e-10       5.208519143086e-16       1.354220980599e-13       0.000000000000e+00       1.166770898553e-09       1.038447431695e-10       1.170809700059e-13 
   10       1.161132539228e-10       4.388861898034e-16       1.186581109046e-13       0.000000000000e+00       9.966898228228e-10       9.028468832765e-11       9.396021537339e-14 
   11       1.162393122246e-10       3.648942802430e-16       1.125875027050e-13       0.000000000000e+00       8.432950898109e-10       7.968993094753e-11       5.145270653737e-14 
   12       1.167181721433e-10       3.172079743954e-16       1.137842345971e-13       0.000000000000e+00       7.367613247682e-10       7.043995611372e-11       8.505587090478e-15 
   13       1.174801091916e-10       3.043842328121e-16       1.192745157922e-13       0.000000000000e+00       6.493067697441e-10       6.289701849087e-11      -2.257418629106e-14 
   14       1.184522773563e-10       3.151971296939e-16       1.268747574345e-13       0.000000000000e+00       5.765439768027e-10       5.631048593685e-11      -3.808018878667e-14 
   15       1.196322617113e-10       3.376289615612e-16       1.351665691903e-13       0.000000000000e+00       5.152969528432e-10       5.077373662873e-11      -3.911810666558e-14 
   16       1.209603405771e-10       3.710841313044e-16       1.435457809439e-13       0.000000000000e+00       4.632235258011e-10       4.602373742535e-11      -3.059067944199e-14 
   17       1.224263807496e-10       4.221923465381e-16       1.519142406113e-13       0.000000000000e+00       4.185542667747e-10       4.189545919232e-11      -1.835759836526e-14 
   18       1.239822453152e-10       4.958896774754e-16       1.605123992915e-13       0.000000000000e+00       3.797858320535e-10       3.827295864534e-11      -7.624986544629e-15 
   19       1.256394754202e-10       5.919300248588e-16       1.695810654634e-13       0.000000000000e+00       3.462998323421e-10       3.511646293985e-11      -8.588790356366e-16 
   20       1.273769457919e-10       7.077677126484e-16       1.793004972199e-13       0.000000000000e+00       3.168085839492e-10       3.233200812131e-11       6.140697464984e-16 
   21       1.292008583643e-10       8.427983071685e-16       1.896241525002e-13       0.000000000000e+00       2.908488680825e-10       2.986826639424e-11      -2.208162722870e-15 
   22       1.310927175027e-10       9.966726853584e-16       2.003300915636e-13       0.000000000000e+00       2.677987872922e-10       2.764885425657e-11      -7.116115228241e-15 
   23       1.330505638118e-10       1.169158007162e-15       2.109788839497e-13       0.000000000000e+00       2.473414799530e-10       2.565105329496e-11      -1.224149893068e-14 
   24       1.350573787985e-10       1.359977405171e-15       2.210275468181e-13       0.000000000000e+00       2.290044127327e-10       2.384709594182e-11      -1.576016038870e-14 
   25       1.371240469095e-10       1.569676194766e-15       2.302052962285e-13       0.000000000000e+00       2.125718558109e-10       2.222950393088e-11      -1.704109260628e-14 
   26       1.392511623909e-10       1.799265020324e-15       2.383366187076e-13       0.000000000000e+00       1.977462454286e-10       2.077868947333e-11      -1.603215746747e-14 
   27       1.414245275712e-10       2.050800981719e-15       2.453539347867e-13       0.000000000000e+00       1.843496210591e-10       1.946629939311e-11      -1.354581990596e-14 
   28       1.436172975561e-10       2.326655890755e-15       2.512517997801e-13       0.000000000000e+00       1.721509387776e-10       1.825430382026e-11      -1.074029030992e-14 
   29       1.458396469510e-10       2.628276308650e-15       2.560957129287e-13       0.000000000000e+00       1.610878338526e-10       1.714155233311e-11      -8.251361069465e-15 
   30       1.481026025705e-10       2.956806014460e-15       2.600090347153e-13       0.000000000000e+00       1.510414644182e-10       1.612987059522e-11      -6.645686209296e-15 
   31       1.504061755410e-10       3.313318548775e-15       2.631169283946e-13       0.000000000000e+00       1.418068579996e-10       1.521150410825e-11      -6.414015841584e-15 
   32       1.527527558338e-10       3.698732919733e-15       2.653637377735e-13       0.000000000000e+00       1.333362482113e-10       1.437600456122e-11      -7.275743854026e-15 
   33       1.551358881660e-10       4.113851788152e-15       2.666259839177e-13       0.000000000000e+00       1.255696513585e-10       1.360395606341e-11      -8.597279483681e-15 
   34       1.575422914332e-10       4.559431149229e-15       2.667623899724e-13       0.000000000000e+00       1.183982957539e-10       1.287231853247e-11      -9.698964316327e-15 
   35       1.599764068025e-10       5.036378528429e-15       2.656306971731e-13       0.000000000000e+00       1.117854170704e-10       1.218302477845e-11      -1.034768828112e-14 
   36       1.624426726500e-10       5.545615975149e-15       2.630740213136e-13       0.000000000000e+00       1.056779121009e-10       1.154356132399e-11      -1.042999951752e-14 
   37       1.649405364030e-10       6.088010880523e-15       2.589488337549e-13       0.000000000000e+00       9.999623887627e-11       1.095826440822e-11      -9.880212448364e-15 
   38       1.674724639253e-10       6.664329169023e-15       2.532412330287e-13       0.000000000000e+00       9.472567142770e-11       1.042525256788e-11      -8.880142278370e-15 
   39       1.700373465066e-10       7.275259702503e-15       2.459897819018e-13       0.000000000000e+00       8.984944405490e-11       9.937924686024e-12      -7.730203262092e-15 
   40       1.726275188408e-10       7.921421074298e-15       2.372561783659e-13       0.000000000000e+00       8.532099432876e-11       9.485329058000e-12      -6.801774573694e-15 
   41       1.752330902321e-10       8.603404330713e-15       2.271023241559e-13       0.000000000000e+00       8.108017151957e-11       9.055465204226e-12      -6.434826917955e-15 
   42       1.778582076053e-10       9.321928626889e-15       2.155091840104e-13       0.000000000000e+00       7.711445457270e-11       8.647330441131e-12      -6.579834354156e-15 
   43       1.805089848283e-10       1.007772870467e-14       2.024338707060e-13       0.000000000000e+00       7.341328881178e-11       8.262200838294e-12      -7.046915548848e-15 
   44       1.831886676473e-10       1.087151085546e-14       1.878314311838e-13       0.000000000000e+00       6.994971706137e-11       7.900215119309e-12      -7.599906003197e-15 
   45       1.858983334522e-10       1.170391512574e-14       1.716553511744e-13       0.000000000000e+00       6.668999840312e-11       7.560652597089e-12      -8.012388975035e-15 
   46       1.886399762091e-10       1.257539140248e-14       1.538598979063e-13       0.000000000000e+00       6.362896990669e-11       7.243105500857e-12      -8.262414058069e-15 
   47       1.914138124002e-10       1.348628415791e-14       1.343980093480e-13       0.000000000000e+00       6.076303602614e-11       6.946484292569e-12      -8.391191154499e-15 
   48       1.942171014181e-10       1.443686251273e-14       1.132203505332e-13       0.000000000000e+00       5.807950341256e-11       6.668590874377e-12      -8.449843714772e-15 
   49       1.970438914596e-10       1.542731688256e-14       9.027508310528e-14       0.000000000000e+00       5.555590459222e-11       6.406038840610e-12      -8.499975973934e-15 
   50       1.998877781709e-10       1.645778685966e-14       6.551399011725e-14       0.000000000000e+00       5.316675716496e-11       6.155237587155e-12      -8.600230441523e-15 
   51       2.027516528755e-10       1.752846156012e-14       3.891334502577e-14       0.000000000000e+00       5.090757340962e-11       5.915844569962e-12      -8.760342779728e-15 
   52       2.056401611550e-10       1.863950071810e-14       1.045830899214e-14       0.000000000000e+00       4.877619875078e-11       5.688112273756e-12      -8.975596144065e-15 
   53       2.085568116986e-10       1.979100399241e-14      -1.986286229202e-14       0.000000000000e+00       4.676562716976e-11       5.471877275901e-12      -9.239651068387e-15 
   54       2.115038639742e-10       2.098300908294e-14      -5.205874999006e-14       0.000000000000e+00       4.486367478958e-11       5.266530562268e-12      -9.544453419033e-15 
   55       2.144826325642e-10       2.221550417650e-14      -8.613529917180e-14       0.000000000000e+00       4.305669162291e-11       5.071278837504e-12      -9.879794568362e-15 
   56       2.174947460438e-10       2.348847322021e-14      -1.220977104824e-13       0.000000000000e+00       4.134252438448e-11       4.886072477053e-12      -1.023207483446e-14 
   57       2.205410040815e-10       2.480185859580e-14      -1.599488982205e-13       0.000000000000e+00       3.972020217793e-11       4.710856104238e-12      -1.058507162779e-14 
   58       2.236208941680e-10       2.615554647900e-14      -1.996888914256e-13       0.000000000000e+00       3.818601506697e-11       4.545279845520e-12      -1.092015702046e-14 
   59       2.267324955209e-10       2.754936551434e-14      -2.413147884712e-13       0.000000000000e+00       3.673334499126e-11       4.388680983802e-12      -1.121619215046e-14 
   60       2.298723829888e-10       2.898308548981e-14      -2.848207116576e-13       0.000000000000e+00       3.535249668247e-11       4.240065611740e-12      -1.144942162595e-14 
   61       2.330370864036e-10       3.045636534069e-14      -3.301986220288e-13       0.000000000000e+00       3.403338624955e-11       4.098380559713e-12      -1.159905218215e-14 
   62       2.362280688166e-10       3.196858652091e-14      -3.774410802705e-13       0.000000000000e+00       3.277469465526e-11       3.963442010767e-12      -1.166569079497e-14 
   63       2.394477002424e-10       3.351897970816e-14      -4.265390277699e-13       0.000000000000e+00       3.157647814357e-11       3.835183715326e-12      -1.165687665320e-14 
   64       2.426977549971e-10       3.510666929940e-14      -4.774809633224e-13       0.000000000000e+00       3.043741501260e-11       3.713376153921e-12      -1.158183538723e-14 
   65       2.459793649553e-10       3.673067047783e-14      -5.302529250194e-13       0.000000000000e+00       2.935472720227e-11       3.597617400697e-12      -1.145155383038e-14 
   66       2.492929728073e-10       3.838988627989e-14      -5.848384721348e-13       0.000000000000e+00       2.832410188203e-11       3.487323986909e-12      -1.127885478014e-14 
   67       2.526382853171e-10       4.008310466213e-14      -6.412186670127e-13       0.000000000000e+00       2.733961303851e-11       3.381721764431e-12      -1.107847175953e-14 
   68       2.560148139544e-10       4.180910701969e-14      -6.993720468241e-13       0.000000000000e+00       2.639530174608e-11       3.280049119523e-12      -1.086450440753e-14 
   69       2.594237284859e-10       4.356702583132e-14      -7.592745726794e-13       0.000000000000e+00       2.549046408149e-11       3.182234851912e-12      -1.064201880542e-14 
   70       2.628662967257e-10       4.535605454656e-14      -8.208996376186e-13       0.000000000000e+00       2.462529873968e-11       3.088341869761e-12      -1.041387163984e-14 
   71       2.663432992398e-10       4.717534246513e-14      -8.842180577872e-13       0.000000000000e+00       2.379930780864e-11       2.998363353503e-12      -1.018318661229e-14 
   72       2.698549976261e-10       4.902399465431e-14      -9.491980540646e-13       0.000000000000e+00       2.301126077868e-11       2.912219050297e-12      -9.953362208880e-15 
   73       2.734011027939e-10       5.090107186630e-14      -1.015805233691e-12       0.000000000000e+00       2.225915855164e-11       2.829751568483e-12      -9.728079469988e-15 
   74       2.769807432436e-10       5.280559045565e-14      -1.084002571899e-12       0.000000000000e+00       2.154019745012e-11       2.750722672040e-12      -9.511309760039e-15 
   75       2.805924333464e-10       5.473652229658e-14      -1.153750393535e-12       0.000000000000e+00       2.085073322676e-11       2.674809575038e-12      -9.307322537201e-15 
   76       2.842347298535e-10       5.669274932969e-14      -1.225007906253e-12       0.000000000000e+00       2.018718420912e-11       2.601688946645e-12      -9.119921613531e-15 
   77       2.879084097528e-10       5.867291781540e-14      -1.297738163449e-12       0.000000000000e+00       1.954901042880e-11       2.531314802598e-12      -8.949975972894e-15 
   78       2.916146337706e-10       6.067555722934e-14      -1.371903977167e-12       0.000000000000e+00       1.893621488691e-11       2.463684791793e-12      -8.797450709852e-15 
   79       2.953542760517e-10       6.269912227862e-14      -1.447466460052e-12       0.000000000000e+00       1.834843615073e-11       2.398755105182e-12      -8.662130673793e-15 
   80       2.991279065519e-10       6.474199188892e-14      -1.524385038800e-12       0.000000000000e+00       1.778493162062e-11       2.336438568809e-12      -8.543612418221e-15 
   81       3.029357734303e-10       6.680246819143e-14      -1.602617467596e-12       0.000000000000e+00       1.724456079701e-11       2.276602736838e-12      -8.441296150048e-15 
   82       3.067777854418e-10       6.887877550992e-14      -1.682119841562e-12       0.000000000000e+00       1.672576854741e-11       2.219067984590e-12      -8.354377678888e-15 
   83       3.106534943295e-10       7.096905934774e-14      -1.762846610201e-12       0.000000000000e+00       1.622656837335e-11       2.163605601570e-12      -8.281840366348e-15 
   84       3.145623903048e-10       7.307144639884e-14      -1.844749969201e-12       0.000000000000e+00       1.574502422974e-11       2.109993044143e-12      -8.222416534067e-15 
   85       3.185048833393e-10       7.518423823044e-14      -1.927777890567e-12       0.000000000000e+00       1.528082441128e-11       2.058194395047e-12      -8.174481971867e-15 
   86       3.224814530236e-10       7.730574800091e-14      -2.011875789055e-12       0.000000000000e+00       1.483393911706e-11       2.008206463005e-12      -8.136129099405e-15 
   87       3.264923377805e-10       7.943424230297e-14      -2.096987117734e-12       0.000000000000e+00       1.440413686581e-11       1.960003350644e-12      -8.105187514737e-15 
   88       3.305375225192e-10       8.156794117632e-14      -2.183053370976e-12       0.000000000000e+00       1.399097614191e-11       1.913535508185e-12      -8.079215430312e-15 
   89       3.346167262895e-10       8.370501812031e-14      -2.270014087453e-12       0.000000000000e+00       1.359379704139e-11       1.868728787144e-12      -8.055491108970e-15 
   90       3.387293899361e-10       8.584360010653e-14      -2.357806853138e-12       0.000000000000e+00       1.321171291798e-11       1.825483494031e-12      -8.031004299931e-15 
   91       3.428746637535e-10       8.798176759144e-14      -2.446367304294e-12       0.000000000000e+00       1.284360202906e-11       1.783673444046e-12      -8.002447674794e-15 
   92       3.470513951400e-10       9.011755452904e-14      -2.535629130478e-12       0.000000000000e+00       1.248809918169e-11       1.743145014779e-12      -7.966208263526e-15 
   93       3.512584751421e-10       9.224898132823e-14      -2.625525287118e-12       0.000000000000e+00       1.214391901158e-11       1.703755390236e-12      -7.919221581588e-15 
   94       3.554959645226e-10       9.437415936774e-14      -2.715991835368e-12       0.000000000000e+00       1.181089958305e-11       1.665495927937e-12      -7.861699559287e-15 
   95       3.597641150159e-10       9.649120229678e-14      -2.806964687994e-12       0.000000000000e+00       1.148910103117e-11       1.628385682957e-12      -7.794798968261e-15 
   96       3.640630182080e-10       9.859819494945e-14      -2.898378470587e-12       0.000000000000e+00       1.117848416332e-11       1.592433467961e-12      -7.719798521260e-15 
   97       3.683925981178e-10       1.006931938096e-13      -2.990166541162e-12       0.000000000000e+00       1.087890665743e-11       1.557637444861e-12      -7.638102150156e-15 
   98       3.727526037778e-10       1.027742274758e-13      -3.082261009756e-12       0.000000000000e+00       1.059011926028e-11       1.523984716473e-12      -7.551242283961e-15 
   99       3.771426018148e-10       1.048392971259e-13      -3.174592758033e-12       0.000000000000e+00       1.031176198575e-11       1.491450918177e-12      -7.460883126837e-15 
  100       3.815619690308e-10       1.068863769823e-13      -3.267091458880e-12       0.000000000000e+00       1.004336031313e-11       1.459999809572e-12      -7.368823936111e-15 
  101       3.860098849838e-10       1.089134147764e-13      -3.359685596007e-12       0.000000000000e+00       9.784321385366e-12       1.429582866131e-12      -7.277002300290e-15 
  102       3.904853245686e-10       1.109183322139e-13      -3.452302483551e-12       0.000000000000e+00       9.533930207372e-12       1.400138870865e-12      -7.187497417070e-15 
  103       3.949870505979e-10       1.128990254392e-13      -3.544868285672e-12       0.000000000000e+00       9.291345844286e-12       1.371593505974e-12      -7.102533371356e-15 
  104       3.995138699596e-10       1.148534165910e-13      -3.637308599762e-12       0.000000000000e+00       9.055791681404e-12       1.343876296739e-12      -7.023995327996e-15 
  105       4.040654574807e-10       1.167796153989e-13      -3.729550253557e-12       0.000000000000e+00       8.827163663039e-12       1.316974929454e-12      -6.951896617777e-15 
  106       4.086416300419e-10       1.186757803844e-13      -3.821519788462e-12       0.000000000000e+00       8.605497512869e-12       1.290887543945e-12      -6.885709724252e-15 
  107       4.132420884712e-10       1.205400707334e-13      -3.913142943100e-12       0.000000000000e+00       8.390780360396e-12       1.265605821541e-12      -6.824832828031e-15 
